#  E (eV)   dos(E)     Int dos(E) EFermi =   -0.526 eV
 -10.000  0.7509E+00  0.7509E-02
  -9.990  0.7421E+00  0.1493E-01
  -9.980  0.7337E+00  0.2227E-01
  -9.970  0.7260E+00  0.2953E-01
  -9.960  0.7195E+00  0.3672E-01
  -9.950  0.7146E+00  0.4387E-01
  -9.940  0.7114E+00  0.5098E-01
  -9.930  0.7102E+00  0.5808E-01
  -9.920  0.7111E+00  0.6520E-01
  -9.910  0.7141E+00  0.7234E-01
  -9.900  0.7190E+00  0.7953E-01
  -9.890  0.7257E+00  0.8678E-01
  -9.880  0.7338E+00  0.9412E-01
  -9.870  0.7431E+00  0.1016E+00
  -9.860  0.7530E+00  0.1091E+00
  -9.850  0.7631E+00  0.1167E+00
  -9.840  0.7731E+00  0.1244E+00
  -9.830  0.7825E+00  0.1323E+00
  -9.820  0.7908E+00  0.1402E+00
  -9.810  0.7978E+00  0.1482E+00
  -9.800  0.8033E+00  0.1562E+00
  -9.790  0.8070E+00  0.1643E+00
  -9.780  0.8089E+00  0.1723E+00
  -9.770  0.8090E+00  0.1804E+00
  -9.760  0.8075E+00  0.1885E+00
  -9.750  0.8046E+00  0.1966E+00
  -9.740  0.8004E+00  0.2046E+00
  -9.730  0.7955E+00  0.2125E+00
  -9.720  0.7900E+00  0.2204E+00
  -9.710  0.7844E+00  0.2283E+00
  -9.700  0.7789E+00  0.2361E+00
  -9.690  0.7740E+00  0.2438E+00
  -9.680  0.7698E+00  0.2515E+00
  -9.670  0.7666E+00  0.2592E+00
  -9.660  0.7644E+00  0.2668E+00
  -9.650  0.7632E+00  0.2744E+00
  -9.640  0.7631E+00  0.2821E+00
  -9.630  0.7638E+00  0.2897E+00
  -9.620  0.7652E+00  0.2974E+00
  -9.610  0.7671E+00  0.3050E+00
  -9.600  0.7692E+00  0.3127E+00
  -9.590  0.7713E+00  0.3204E+00
  -9.580  0.7730E+00  0.3282E+00
  -9.570  0.7743E+00  0.3359E+00
  -9.560  0.7750E+00  0.3437E+00
  -9.550  0.7749E+00  0.3514E+00
  -9.540  0.7742E+00  0.3591E+00
  -9.530  0.7728E+00  0.3669E+00
  -9.520  0.7710E+00  0.3746E+00
  -9.510  0.7690E+00  0.3823E+00
  -9.500  0.7669E+00  0.3899E+00
  -9.490  0.7652E+00  0.3976E+00
  -9.480  0.7641E+00  0.4052E+00
  -9.470  0.7639E+00  0.4129E+00
  -9.460  0.7648E+00  0.4205E+00
  -9.450  0.7670E+00  0.4282E+00
  -9.440  0.7706E+00  0.4359E+00
  -9.430  0.7757E+00  0.4437E+00
  -9.420  0.7820E+00  0.4515E+00
  -9.410  0.7895E+00  0.4594E+00
  -9.400  0.7979E+00  0.4673E+00
  -9.390  0.8069E+00  0.4754E+00
  -9.380  0.8159E+00  0.4836E+00
  -9.370  0.8247E+00  0.4918E+00
  -9.360  0.8327E+00  0.5001E+00
  -9.350  0.8396E+00  0.5085E+00
  -9.340  0.8449E+00  0.5170E+00
  -9.330  0.8485E+00  0.5255E+00
  -9.320  0.8499E+00  0.5340E+00
  -9.310  0.8492E+00  0.5425E+00
  -9.300  0.8463E+00  0.5509E+00
  -9.290  0.8414E+00  0.5593E+00
  -9.280  0.8345E+00  0.5677E+00
  -9.270  0.8261E+00  0.5760E+00
  -9.260  0.8165E+00  0.5841E+00
  -9.250  0.8062E+00  0.5922E+00
  -9.240  0.7956E+00  0.6001E+00
  -9.230  0.7852E+00  0.6080E+00
  -9.220  0.7756E+00  0.6157E+00
  -9.210  0.7671E+00  0.6234E+00
  -9.200  0.7603E+00  0.6310E+00
  -9.190  0.7553E+00  0.6386E+00
  -9.180  0.7525E+00  0.6461E+00
  -9.170  0.7520E+00  0.6536E+00
  -9.160  0.7539E+00  0.6612E+00
  -9.150  0.7580E+00  0.6687E+00
  -9.140  0.7642E+00  0.6764E+00
  -9.130  0.7722E+00  0.6841E+00
  -9.120  0.7817E+00  0.6919E+00
  -9.110  0.7922E+00  0.6998E+00
  -9.100  0.8035E+00  0.7079E+00
  -9.090  0.8149E+00  0.7160E+00
  -9.080  0.8260E+00  0.7243E+00
  -9.070  0.8365E+00  0.7326E+00
  -9.060  0.8460E+00  0.7411E+00
  -9.050  0.8540E+00  0.7496E+00
  -9.040  0.8605E+00  0.7583E+00
  -9.030  0.8653E+00  0.7669E+00
  -9.020  0.8682E+00  0.7756E+00
  -9.010  0.8695E+00  0.7843E+00
  -9.000  0.8690E+00  0.7930E+00
  -8.990  0.8672E+00  0.8016E+00
  -8.980  0.8641E+00  0.8103E+00
  -8.970  0.8601E+00  0.8189E+00
  -8.960  0.8554E+00  0.8274E+00
  -8.950  0.8505E+00  0.8359E+00
  -8.940  0.8455E+00  0.8444E+00
  -8.930  0.8408E+00  0.8528E+00
  -8.920  0.8365E+00  0.8612E+00
  -8.910  0.8328E+00  0.8695E+00
  -8.900  0.8297E+00  0.8778E+00
  -8.890  0.8275E+00  0.8861E+00
  -8.880  0.8260E+00  0.8943E+00
  -8.870  0.8251E+00  0.9026E+00
  -8.860  0.8249E+00  0.9108E+00
  -8.850  0.8251E+00  0.9191E+00
  -8.840  0.8257E+00  0.9273E+00
  -8.830  0.8266E+00  0.9356E+00
  -8.820  0.8277E+00  0.9439E+00
  -8.810  0.8289E+00  0.9522E+00
  -8.800  0.8303E+00  0.9605E+00
  -8.790  0.8319E+00  0.9688E+00
  -8.780  0.8338E+00  0.9771E+00
  -8.770  0.8362E+00  0.9855E+00
  -8.760  0.8393E+00  0.9939E+00
  -8.750  0.8433E+00  0.1002E+01
  -8.740  0.8484E+00  0.1011E+01
  -8.730  0.8548E+00  0.1019E+01
  -8.720  0.8627E+00  0.1028E+01
  -8.710  0.8722E+00  0.1037E+01
  -8.700  0.8835E+00  0.1046E+01
  -8.690  0.8964E+00  0.1054E+01
  -8.680  0.9110E+00  0.1064E+01
  -8.670  0.9270E+00  0.1073E+01
  -8.660  0.9442E+00  0.1082E+01
  -8.650  0.9622E+00  0.1092E+01
  -8.640  0.9807E+00  0.1102E+01
  -8.630  0.9992E+00  0.1112E+01
  -8.620  0.1017E+01  0.1122E+01
  -8.610  0.1034E+01  0.1132E+01
  -8.600  0.1050E+01  0.1143E+01
  -8.590  0.1064E+01  0.1153E+01
  -8.580  0.1076E+01  0.1164E+01
  -8.570  0.1085E+01  0.1175E+01
  -8.560  0.1092E+01  0.1186E+01
  -8.550  0.1096E+01  0.1197E+01
  -8.540  0.1098E+01  0.1208E+01
  -8.530  0.1098E+01  0.1219E+01
  -8.520  0.1096E+01  0.1230E+01
  -8.510  0.1092E+01  0.1241E+01
  -8.500  0.1088E+01  0.1252E+01
  -8.490  0.1083E+01  0.1262E+01
  -8.480  0.1079E+01  0.1273E+01
  -8.470  0.1075E+01  0.1284E+01
  -8.460  0.1072E+01  0.1295E+01
  -8.450  0.1071E+01  0.1305E+01
  -8.440  0.1072E+01  0.1316E+01
  -8.430  0.1076E+01  0.1327E+01
  -8.420  0.1082E+01  0.1338E+01
  -8.410  0.1090E+01  0.1349E+01
  -8.400  0.1100E+01  0.1360E+01
  -8.390  0.1112E+01  0.1371E+01
  -8.380  0.1125E+01  0.1382E+01
  -8.370  0.1139E+01  0.1393E+01
  -8.360  0.1154E+01  0.1405E+01
  -8.350  0.1169E+01  0.1417E+01
  -8.340  0.1183E+01  0.1428E+01
  -8.330  0.1195E+01  0.1440E+01
  -8.320  0.1206E+01  0.1452E+01
  -8.310  0.1215E+01  0.1465E+01
  -8.300  0.1221E+01  0.1477E+01
  -8.290  0.1225E+01  0.1489E+01
  -8.280  0.1226E+01  0.1501E+01
  -8.270  0.1225E+01  0.1514E+01
  -8.260  0.1221E+01  0.1526E+01
  -8.250  0.1215E+01  0.1538E+01
  -8.240  0.1207E+01  0.1550E+01
  -8.230  0.1198E+01  0.1562E+01
  -8.220  0.1189E+01  0.1574E+01
  -8.210  0.1179E+01  0.1586E+01
  -8.200  0.1170E+01  0.1597E+01
  -8.190  0.1161E+01  0.1609E+01
  -8.180  0.1154E+01  0.1620E+01
  -8.170  0.1149E+01  0.1632E+01
  -8.160  0.1146E+01  0.1643E+01
  -8.150  0.1145E+01  0.1655E+01
  -8.140  0.1146E+01  0.1666E+01
  -8.130  0.1151E+01  0.1678E+01
  -8.120  0.1157E+01  0.1689E+01
  -8.110  0.1166E+01  0.1701E+01
  -8.100  0.1176E+01  0.1713E+01
  -8.090  0.1188E+01  0.1725E+01
  -8.080  0.1201E+01  0.1737E+01
  -8.070  0.1214E+01  0.1749E+01
  -8.060  0.1227E+01  0.1761E+01
  -8.050  0.1239E+01  0.1774E+01
  -8.040  0.1249E+01  0.1786E+01
  -8.030  0.1258E+01  0.1799E+01
  -8.020  0.1265E+01  0.1811E+01
  -8.010  0.1269E+01  0.1824E+01
  -8.000  0.1271E+01  0.1837E+01
  -7.990  0.1271E+01  0.1849E+01
  -7.980  0.1269E+01  0.1862E+01
  -7.970  0.1265E+01  0.1875E+01
  -7.960  0.1259E+01  0.1887E+01
  -7.950  0.1253E+01  0.1900E+01
  -7.940  0.1247E+01  0.1912E+01
  -7.930  0.1241E+01  0.1925E+01
  -7.920  0.1237E+01  0.1937E+01
  -7.910  0.1234E+01  0.1949E+01
  -7.900  0.1233E+01  0.1962E+01
  -7.890  0.1235E+01  0.1974E+01
  -7.880  0.1240E+01  0.1987E+01
  -7.870  0.1249E+01  0.1999E+01
  -7.860  0.1260E+01  0.2012E+01
  -7.850  0.1275E+01  0.2024E+01
  -7.840  0.1292E+01  0.2037E+01
  -7.830  0.1312E+01  0.2050E+01
  -7.820  0.1334E+01  0.2064E+01
  -7.810  0.1357E+01  0.2077E+01
  -7.800  0.1381E+01  0.2091E+01
  -7.790  0.1405E+01  0.2105E+01
  -7.780  0.1428E+01  0.2119E+01
  -7.770  0.1450E+01  0.2134E+01
  -7.760  0.1470E+01  0.2149E+01
  -7.750  0.1489E+01  0.2164E+01
  -7.740  0.1504E+01  0.2179E+01
  -7.730  0.1518E+01  0.2194E+01
  -7.720  0.1528E+01  0.2209E+01
  -7.710  0.1536E+01  0.2224E+01
  -7.700  0.1542E+01  0.2240E+01
  -7.690  0.1546E+01  0.2255E+01
  -7.680  0.1548E+01  0.2271E+01
  -7.670  0.1549E+01  0.2286E+01
  -7.660  0.1549E+01  0.2302E+01
  -7.650  0.1548E+01  0.2317E+01
  -7.640  0.1548E+01  0.2333E+01
  -7.630  0.1549E+01  0.2348E+01
  -7.620  0.1550E+01  0.2364E+01
  -7.610  0.1552E+01  0.2379E+01
  -7.600  0.1556E+01  0.2395E+01
  -7.590  0.1561E+01  0.2410E+01
  -7.580  0.1568E+01  0.2426E+01
  -7.570  0.1576E+01  0.2442E+01
  -7.560  0.1586E+01  0.2458E+01
  -7.550  0.1596E+01  0.2474E+01
  -7.540  0.1608E+01  0.2490E+01
  -7.530  0.1620E+01  0.2506E+01
  -7.520  0.1633E+01  0.2522E+01
  -7.510  0.1646E+01  0.2539E+01
  -7.500  0.1659E+01  0.2555E+01
  -7.490  0.1672E+01  0.2572E+01
  -7.480  0.1684E+01  0.2589E+01
  -7.470  0.1696E+01  0.2606E+01
  -7.460  0.1706E+01  0.2623E+01
  -7.450  0.1716E+01  0.2640E+01
  -7.440  0.1724E+01  0.2657E+01
  -7.430  0.1732E+01  0.2675E+01
  -7.420  0.1738E+01  0.2692E+01
  -7.410  0.1744E+01  0.2709E+01
  -7.400  0.1748E+01  0.2727E+01
  -7.390  0.1753E+01  0.2744E+01
  -7.380  0.1757E+01  0.2762E+01
  -7.370  0.1760E+01  0.2780E+01
  -7.360  0.1764E+01  0.2797E+01
  -7.350  0.1768E+01  0.2815E+01
  -7.340  0.1773E+01  0.2833E+01
  -7.330  0.1777E+01  0.2850E+01
  -7.320  0.1783E+01  0.2868E+01
  -7.310  0.1789E+01  0.2886E+01
  -7.300  0.1796E+01  0.2904E+01
  -7.290  0.1803E+01  0.2922E+01
  -7.280  0.1812E+01  0.2940E+01
  -7.270  0.1821E+01  0.2958E+01
  -7.260  0.1831E+01  0.2977E+01
  -7.250  0.1842E+01  0.2995E+01
  -7.240  0.1854E+01  0.3014E+01
  -7.230  0.1867E+01  0.3032E+01
  -7.220  0.1881E+01  0.3051E+01
  -7.210  0.1897E+01  0.3070E+01
  -7.200  0.1914E+01  0.3089E+01
  -7.190  0.1932E+01  0.3109E+01
  -7.180  0.1952E+01  0.3128E+01
  -7.170  0.1973E+01  0.3148E+01
  -7.160  0.1996E+01  0.3168E+01
  -7.150  0.2021E+01  0.3188E+01
  -7.140  0.2047E+01  0.3209E+01
  -7.130  0.2073E+01  0.3229E+01
  -7.120  0.2101E+01  0.3250E+01
  -7.110  0.2128E+01  0.3272E+01
  -7.100  0.2155E+01  0.3293E+01
  -7.090  0.2181E+01  0.3315E+01
  -7.080  0.2206E+01  0.3337E+01
  -7.070  0.2228E+01  0.3359E+01
  -7.060  0.2248E+01  0.3382E+01
  -7.050  0.2264E+01  0.3404E+01
  -7.040  0.2277E+01  0.3427E+01
  -7.030  0.2286E+01  0.3450E+01
  -7.020  0.2290E+01  0.3473E+01
  -7.010  0.2290E+01  0.3496E+01
  -7.000  0.2285E+01  0.3519E+01
  -6.990  0.2276E+01  0.3541E+01
  -6.980  0.2263E+01  0.3564E+01
  -6.970  0.2246E+01  0.3586E+01
  -6.960  0.2226E+01  0.3609E+01
  -6.950  0.2203E+01  0.3631E+01
  -6.940  0.2178E+01  0.3653E+01
  -6.930  0.2151E+01  0.3674E+01
  -6.920  0.2123E+01  0.3695E+01
  -6.910  0.2095E+01  0.3716E+01
  -6.900  0.2068E+01  0.3737E+01
  -6.890  0.2041E+01  0.3757E+01
  -6.880  0.2015E+01  0.3777E+01
  -6.870  0.1992E+01  0.3797E+01
  -6.860  0.1970E+01  0.3817E+01
  -6.850  0.1950E+01  0.3837E+01
  -6.840  0.1933E+01  0.3856E+01
  -6.830  0.1918E+01  0.3875E+01
  -6.820  0.1905E+01  0.3894E+01
  -6.810  0.1894E+01  0.3913E+01
  -6.800  0.1884E+01  0.3932E+01
  -6.790  0.1876E+01  0.3951E+01
  -6.780  0.1869E+01  0.3969E+01
  -6.770  0.1862E+01  0.3988E+01
  -6.760  0.1855E+01  0.4007E+01
  -6.750  0.1848E+01  0.4025E+01
  -6.740  0.1840E+01  0.4043E+01
  -6.730  0.1832E+01  0.4062E+01
  -6.720  0.1822E+01  0.4080E+01
  -6.710  0.1811E+01  0.4098E+01
  -6.700  0.1798E+01  0.4116E+01
  -6.690  0.1784E+01  0.4134E+01
  -6.680  0.1770E+01  0.4152E+01
  -6.670  0.1754E+01  0.4169E+01
  -6.660  0.1737E+01  0.4187E+01
  -6.650  0.1721E+01  0.4204E+01
  -6.640  0.1704E+01  0.4221E+01
  -6.630  0.1688E+01  0.4238E+01
  -6.620  0.1672E+01  0.4254E+01
  -6.610  0.1657E+01  0.4271E+01
  -6.600  0.1644E+01  0.4287E+01
  -6.590  0.1632E+01  0.4304E+01
  -6.580  0.1621E+01  0.4320E+01
  -6.570  0.1612E+01  0.4336E+01
  -6.560  0.1604E+01  0.4352E+01
  -6.550  0.1597E+01  0.4368E+01
  -6.540  0.1592E+01  0.4384E+01
  -6.530  0.1588E+01  0.4400E+01
  -6.520  0.1585E+01  0.4416E+01
  -6.510  0.1583E+01  0.4431E+01
  -6.500  0.1581E+01  0.4447E+01
  -6.490  0.1579E+01  0.4463E+01
  -6.480  0.1578E+01  0.4479E+01
  -6.470  0.1576E+01  0.4495E+01
  -6.460  0.1574E+01  0.4510E+01
  -6.450  0.1572E+01  0.4526E+01
  -6.440  0.1570E+01  0.4542E+01
  -6.430  0.1567E+01  0.4557E+01
  -6.420  0.1563E+01  0.4573E+01
  -6.410  0.1558E+01  0.4589E+01
  -6.400  0.1554E+01  0.4604E+01
  -6.390  0.1548E+01  0.4620E+01
  -6.380  0.1542E+01  0.4635E+01
  -6.370  0.1536E+01  0.4650E+01
  -6.360  0.1530E+01  0.4666E+01
  -6.350  0.1524E+01  0.4681E+01
  -6.340  0.1517E+01  0.4696E+01
  -6.330  0.1511E+01  0.4711E+01
  -6.320  0.1505E+01  0.4726E+01
  -6.310  0.1500E+01  0.4741E+01
  -6.300  0.1495E+01  0.4756E+01
  -6.290  0.1490E+01  0.4771E+01
  -6.280  0.1485E+01  0.4786E+01
  -6.270  0.1481E+01  0.4801E+01
  -6.260  0.1477E+01  0.4816E+01
  -6.250  0.1473E+01  0.4830E+01
  -6.240  0.1470E+01  0.4845E+01
  -6.230  0.1467E+01  0.4860E+01
  -6.220  0.1463E+01  0.4874E+01
  -6.210  0.1460E+01  0.4889E+01
  -6.200  0.1457E+01  0.4904E+01
  -6.190  0.1453E+01  0.4918E+01
  -6.180  0.1450E+01  0.4933E+01
  -6.170  0.1446E+01  0.4947E+01
  -6.160  0.1442E+01  0.4961E+01
  -6.150  0.1437E+01  0.4976E+01
  -6.140  0.1433E+01  0.4990E+01
  -6.130  0.1428E+01  0.5004E+01
  -6.120  0.1422E+01  0.5019E+01
  -6.110  0.1417E+01  0.5033E+01
  -6.100  0.1411E+01  0.5047E+01
  -6.090  0.1405E+01  0.5061E+01
  -6.080  0.1399E+01  0.5075E+01
  -6.070  0.1393E+01  0.5089E+01
  -6.060  0.1388E+01  0.5103E+01
  -6.050  0.1383E+01  0.5117E+01
  -6.040  0.1378E+01  0.5130E+01
  -6.030  0.1375E+01  0.5144E+01
  -6.020  0.1372E+01  0.5158E+01
  -6.010  0.1370E+01  0.5172E+01
  -6.000  0.1370E+01  0.5185E+01
  -5.990  0.1371E+01  0.5199E+01
  -5.980  0.1372E+01  0.5213E+01
  -5.970  0.1375E+01  0.5226E+01
  -5.960  0.1378E+01  0.5240E+01
  -5.950  0.1382E+01  0.5254E+01
  -5.940  0.1385E+01  0.5268E+01
  -5.930  0.1389E+01  0.5282E+01
  -5.920  0.1392E+01  0.5296E+01
  -5.910  0.1394E+01  0.5310E+01
  -5.900  0.1394E+01  0.5324E+01
  -5.890  0.1393E+01  0.5337E+01
  -5.880  0.1391E+01  0.5351E+01
  -5.870  0.1387E+01  0.5365E+01
  -5.860  0.1381E+01  0.5379E+01
  -5.850  0.1373E+01  0.5393E+01
  -5.840  0.1364E+01  0.5406E+01
  -5.830  0.1354E+01  0.5420E+01
  -5.820  0.1343E+01  0.5433E+01
  -5.810  0.1332E+01  0.5447E+01
  -5.800  0.1320E+01  0.5460E+01
  -5.790  0.1309E+01  0.5473E+01
  -5.780  0.1299E+01  0.5486E+01
  -5.770  0.1290E+01  0.5499E+01
  -5.760  0.1282E+01  0.5512E+01
  -5.750  0.1276E+01  0.5524E+01
  -5.740  0.1272E+01  0.5537E+01
  -5.730  0.1270E+01  0.5550E+01
  -5.720  0.1270E+01  0.5563E+01
  -5.710  0.1271E+01  0.5575E+01
  -5.700  0.1274E+01  0.5588E+01
  -5.690  0.1279E+01  0.5601E+01
  -5.680  0.1285E+01  0.5614E+01
  -5.670  0.1291E+01  0.5627E+01
  -5.660  0.1298E+01  0.5640E+01
  -5.650  0.1305E+01  0.5653E+01
  -5.640  0.1311E+01  0.5666E+01
  -5.630  0.1317E+01  0.5679E+01
  -5.620  0.1322E+01  0.5692E+01
  -5.610  0.1326E+01  0.5705E+01
  -5.600  0.1329E+01  0.5719E+01
  -5.590  0.1330E+01  0.5732E+01
  -5.580  0.1329E+01  0.5745E+01
  -5.570  0.1326E+01  0.5759E+01
  -5.560  0.1322E+01  0.5772E+01
  -5.550  0.1317E+01  0.5785E+01
  -5.540  0.1310E+01  0.5798E+01
  -5.530  0.1301E+01  0.5811E+01
  -5.520  0.1292E+01  0.5824E+01
  -5.510  0.1282E+01  0.5837E+01
  -5.500  0.1271E+01  0.5849E+01
  -5.490  0.1260E+01  0.5862E+01
  -5.480  0.1250E+01  0.5875E+01
  -5.470  0.1239E+01  0.5887E+01
  -5.460  0.1230E+01  0.5899E+01
  -5.450  0.1221E+01  0.5911E+01
  -5.440  0.1214E+01  0.5924E+01
  -5.430  0.1208E+01  0.5936E+01
  -5.420  0.1204E+01  0.5948E+01
  -5.410  0.1202E+01  0.5960E+01
  -5.400  0.1202E+01  0.5972E+01
  -5.390  0.1204E+01  0.5984E+01
  -5.380  0.1208E+01  0.5996E+01
  -5.370  0.1213E+01  0.6008E+01
  -5.360  0.1220E+01  0.6020E+01
  -5.350  0.1227E+01  0.6033E+01
  -5.340  0.1235E+01  0.6045E+01
  -5.330  0.1244E+01  0.6057E+01
  -5.320  0.1252E+01  0.6070E+01
  -5.310  0.1260E+01  0.6082E+01
  -5.300  0.1266E+01  0.6095E+01
  -5.290  0.1271E+01  0.6108E+01
  -5.280  0.1274E+01  0.6121E+01
  -5.270  0.1275E+01  0.6133E+01
  -5.260  0.1274E+01  0.6146E+01
  -5.250  0.1271E+01  0.6159E+01
  -5.240  0.1265E+01  0.6171E+01
  -5.230  0.1258E+01  0.6184E+01
  -5.220  0.1249E+01  0.6196E+01
  -5.210  0.1239E+01  0.6209E+01
  -5.200  0.1228E+01  0.6221E+01
  -5.190  0.1216E+01  0.6233E+01
  -5.180  0.1205E+01  0.6245E+01
  -5.170  0.1195E+01  0.6257E+01
  -5.160  0.1186E+01  0.6269E+01
  -5.150  0.1178E+01  0.6281E+01
  -5.140  0.1171E+01  0.6293E+01
  -5.130  0.1167E+01  0.6304E+01
  -5.120  0.1164E+01  0.6316E+01
  -5.110  0.1164E+01  0.6328E+01
  -5.100  0.1165E+01  0.6339E+01
  -5.090  0.1167E+01  0.6351E+01
  -5.080  0.1171E+01  0.6363E+01
  -5.070  0.1176E+01  0.6374E+01
  -5.060  0.1181E+01  0.6386E+01
  -5.050  0.1187E+01  0.6398E+01
  -5.040  0.1192E+01  0.6410E+01
  -5.030  0.1197E+01  0.6422E+01
  -5.020  0.1201E+01  0.6434E+01
  -5.010  0.1204E+01  0.6446E+01
  -5.000  0.1206E+01  0.6458E+01
  -4.990  0.1207E+01  0.6470E+01
  -4.980  0.1207E+01  0.6482E+01
  -4.970  0.1206E+01  0.6494E+01
  -4.960  0.1205E+01  0.6506E+01
  -4.950  0.1202E+01  0.6518E+01
  -4.940  0.1200E+01  0.6530E+01
  -4.930  0.1197E+01  0.6542E+01
  -4.920  0.1193E+01  0.6554E+01
  -4.910  0.1190E+01  0.6566E+01
  -4.900  0.1187E+01  0.6578E+01
  -4.890  0.1184E+01  0.6590E+01
  -4.880  0.1181E+01  0.6602E+01
  -4.870  0.1178E+01  0.6613E+01
  -4.860  0.1175E+01  0.6625E+01
  -4.850  0.1172E+01  0.6637E+01
  -4.840  0.1169E+01  0.6649E+01
  -4.830  0.1166E+01  0.6660E+01
  -4.820  0.1162E+01  0.6672E+01
  -4.810  0.1158E+01  0.6683E+01
  -4.800  0.1154E+01  0.6695E+01
  -4.790  0.1149E+01  0.6706E+01
  -4.780  0.1145E+01  0.6718E+01
  -4.770  0.1141E+01  0.6729E+01
  -4.760  0.1137E+01  0.6741E+01
  -4.750  0.1133E+01  0.6752E+01
  -4.740  0.1131E+01  0.6763E+01
  -4.730  0.1129E+01  0.6775E+01
  -4.720  0.1129E+01  0.6786E+01
  -4.710  0.1130E+01  0.6797E+01
  -4.700  0.1132E+01  0.6809E+01
  -4.690  0.1136E+01  0.6820E+01
  -4.680  0.1140E+01  0.6831E+01
  -4.670  0.1146E+01  0.6843E+01
  -4.660  0.1153E+01  0.6854E+01
  -4.650  0.1160E+01  0.6866E+01
  -4.640  0.1167E+01  0.6878E+01
  -4.630  0.1173E+01  0.6889E+01
  -4.620  0.1179E+01  0.6901E+01
  -4.610  0.1183E+01  0.6913E+01
  -4.600  0.1186E+01  0.6925E+01
  -4.590  0.1187E+01  0.6937E+01
  -4.580  0.1186E+01  0.6949E+01
  -4.570  0.1183E+01  0.6960E+01
  -4.560  0.1178E+01  0.6972E+01
  -4.550  0.1171E+01  0.6984E+01
  -4.540  0.1162E+01  0.6995E+01
  -4.530  0.1153E+01  0.7007E+01
  -4.520  0.1142E+01  0.7018E+01
  -4.510  0.1132E+01  0.7030E+01
  -4.500  0.1122E+01  0.7041E+01
  -4.490  0.1112E+01  0.7052E+01
  -4.480  0.1104E+01  0.7063E+01
  -4.470  0.1097E+01  0.7074E+01
  -4.460  0.1092E+01  0.7085E+01
  -4.450  0.1089E+01  0.7096E+01
  -4.440  0.1088E+01  0.7107E+01
  -4.430  0.1088E+01  0.7118E+01
  -4.420  0.1091E+01  0.7129E+01
  -4.410  0.1095E+01  0.7139E+01
  -4.400  0.1101E+01  0.7150E+01
  -4.390  0.1107E+01  0.7162E+01
  -4.380  0.1114E+01  0.7173E+01
  -4.370  0.1122E+01  0.7184E+01
  -4.360  0.1129E+01  0.7195E+01
  -4.350  0.1136E+01  0.7207E+01
  -4.340  0.1142E+01  0.7218E+01
  -4.330  0.1148E+01  0.7229E+01
  -4.320  0.1152E+01  0.7241E+01
  -4.310  0.1156E+01  0.7253E+01
  -4.300  0.1159E+01  0.7264E+01
  -4.290  0.1160E+01  0.7276E+01
  -4.280  0.1160E+01  0.7287E+01
  -4.270  0.1160E+01  0.7299E+01
  -4.260  0.1158E+01  0.7311E+01
  -4.250  0.1155E+01  0.7322E+01
  -4.240  0.1151E+01  0.7334E+01
  -4.230  0.1147E+01  0.7345E+01
  -4.220  0.1141E+01  0.7356E+01
  -4.210  0.1135E+01  0.7368E+01
  -4.200  0.1129E+01  0.7379E+01
  -4.190  0.1122E+01  0.7390E+01
  -4.180  0.1115E+01  0.7401E+01
  -4.170  0.1108E+01  0.7413E+01
  -4.160  0.1101E+01  0.7424E+01
  -4.150  0.1094E+01  0.7434E+01
  -4.140  0.1088E+01  0.7445E+01
  -4.130  0.1083E+01  0.7456E+01
  -4.120  0.1079E+01  0.7467E+01
  -4.110  0.1076E+01  0.7478E+01
  -4.100  0.1074E+01  0.7488E+01
  -4.090  0.1074E+01  0.7499E+01
  -4.080  0.1075E+01  0.7510E+01
  -4.070  0.1078E+01  0.7521E+01
  -4.060  0.1082E+01  0.7532E+01
  -4.050  0.1088E+01  0.7542E+01
  -4.040  0.1095E+01  0.7553E+01
  -4.030  0.1102E+01  0.7564E+01
  -4.020  0.1111E+01  0.7576E+01
  -4.010  0.1119E+01  0.7587E+01
  -4.000  0.1128E+01  0.7598E+01
  -3.990  0.1136E+01  0.7609E+01
  -3.980  0.1144E+01  0.7621E+01
  -3.970  0.1151E+01  0.7632E+01
