#  E (eV)   dos(E)     Int dos(E) EFermi =   -1.805 eV
 -10.000  0.4380E+00  0.4380E-02
  -9.990  0.4381E+00  0.8762E-02
  -9.980  0.4377E+00  0.1314E-01
  -9.970  0.4369E+00  0.1751E-01
  -9.960  0.4355E+00  0.2186E-01
  -9.950  0.4338E+00  0.2620E-01
  -9.940  0.4318E+00  0.3052E-01
  -9.930  0.4295E+00  0.3481E-01
  -9.920  0.4272E+00  0.3909E-01
  -9.910  0.4250E+00  0.4334E-01
  -9.900  0.4230E+00  0.4757E-01
  -9.890  0.4214E+00  0.5178E-01
  -9.880  0.4204E+00  0.5599E-01
  -9.870  0.4200E+00  0.6019E-01
  -9.860  0.4204E+00  0.6439E-01
  -9.850  0.4215E+00  0.6861E-01
  -9.840  0.4234E+00  0.7284E-01
  -9.830  0.4261E+00  0.7710E-01
  -9.820  0.4293E+00  0.8139E-01
  -9.810  0.4331E+00  0.8573E-01
  -9.800  0.4372E+00  0.9010E-01
  -9.790  0.4414E+00  0.9451E-01
  -9.780  0.4455E+00  0.9896E-01
  -9.770  0.4493E+00  0.1035E+00
  -9.760  0.4526E+00  0.1080E+00
  -9.750  0.4553E+00  0.1125E+00
  -9.740  0.4573E+00  0.1171E+00
  -9.730  0.4586E+00  0.1217E+00
  -9.720  0.4590E+00  0.1263E+00
  -9.710  0.4587E+00  0.1309E+00
  -9.700  0.4578E+00  0.1355E+00
  -9.690  0.4563E+00  0.1400E+00
  -9.680  0.4546E+00  0.1446E+00
  -9.670  0.4528E+00  0.1491E+00
  -9.660  0.4512E+00  0.1536E+00
  -9.650  0.4500E+00  0.1581E+00
  -9.640  0.4493E+00  0.1626E+00
  -9.630  0.4495E+00  0.1671E+00
  -9.620  0.4507E+00  0.1716E+00
  -9.610  0.4530E+00  0.1761E+00
  -9.600  0.4565E+00  0.1807E+00
  -9.590  0.4612E+00  0.1853E+00
  -9.580  0.4672E+00  0.1900E+00
  -9.570  0.4743E+00  0.1947E+00
  -9.560  0.4824E+00  0.1995E+00
  -9.550  0.4915E+00  0.2045E+00
  -9.540  0.5013E+00  0.2095E+00
  -9.530  0.5117E+00  0.2146E+00
  -9.520  0.5224E+00  0.2198E+00
  -9.510  0.5334E+00  0.2251E+00
  -9.500  0.5445E+00  0.2306E+00
  -9.490  0.5555E+00  0.2361E+00
  -9.480  0.5664E+00  0.2418E+00
  -9.470  0.5771E+00  0.2476E+00
  -9.460  0.5875E+00  0.2535E+00
  -9.450  0.5976E+00  0.2594E+00
  -9.440  0.6075E+00  0.2655E+00
  -9.430  0.6172E+00  0.2717E+00
  -9.420  0.6268E+00  0.2779E+00
  -9.410  0.6362E+00  0.2843E+00
  -9.400  0.6454E+00  0.2908E+00
  -9.390  0.6546E+00  0.2973E+00
  -9.380  0.6638E+00  0.3039E+00
  -9.370  0.6727E+00  0.3107E+00
  -9.360  0.6816E+00  0.3175E+00
  -9.350  0.6901E+00  0.3244E+00
  -9.340  0.6984E+00  0.3314E+00
  -9.330  0.7062E+00  0.3384E+00
  -9.320  0.7134E+00  0.3456E+00
  -9.310  0.7201E+00  0.3528E+00
  -9.300  0.7260E+00  0.3600E+00
  -9.290  0.7311E+00  0.3673E+00
  -9.280  0.7354E+00  0.3747E+00
  -9.270  0.7388E+00  0.3821E+00
  -9.260  0.7415E+00  0.3895E+00
  -9.250  0.7434E+00  0.3969E+00
  -9.240  0.7447E+00  0.4044E+00
  -9.230  0.7454E+00  0.4118E+00
  -9.220  0.7458E+00  0.4193E+00
  -9.210  0.7459E+00  0.4268E+00
  -9.200  0.7460E+00  0.4342E+00
  -9.190  0.7461E+00  0.4417E+00
  -9.180  0.7463E+00  0.4491E+00
  -9.170  0.7469E+00  0.4566E+00
  -9.160  0.7479E+00  0.4641E+00
  -9.150  0.7493E+00  0.4716E+00
  -9.140  0.7511E+00  0.4791E+00
  -9.130  0.7534E+00  0.4866E+00
  -9.120  0.7562E+00  0.4942E+00
  -9.110  0.7592E+00  0.5018E+00
  -9.100  0.7626E+00  0.5094E+00
  -9.090  0.7660E+00  0.5171E+00
  -9.080  0.7695E+00  0.5248E+00
  -9.070  0.7730E+00  0.5325E+00
  -9.060  0.7762E+00  0.5402E+00
  -9.050  0.7791E+00  0.5480E+00
  -9.040  0.7817E+00  0.5559E+00
  -9.030  0.7838E+00  0.5637E+00
  -9.020  0.7855E+00  0.5715E+00
  -9.010  0.7867E+00  0.5794E+00
  -9.000  0.7874E+00  0.5873E+00
  -8.990  0.7877E+00  0.5952E+00
  -8.980  0.7878E+00  0.6030E+00
  -8.970  0.7876E+00  0.6109E+00
  -8.960  0.7873E+00  0.6188E+00
  -8.950  0.7870E+00  0.6267E+00
  -8.940  0.7868E+00  0.6345E+00
  -8.930  0.7869E+00  0.6424E+00
  -8.920  0.7873E+00  0.6503E+00
  -8.910  0.7881E+00  0.6582E+00
  -8.900  0.7894E+00  0.6660E+00
  -8.890  0.7912E+00  0.6740E+00
  -8.880  0.7935E+00  0.6819E+00
  -8.870  0.7963E+00  0.6899E+00
  -8.860  0.7995E+00  0.6979E+00
  -8.850  0.8032E+00  0.7059E+00
  -8.840  0.8071E+00  0.7140E+00
  -8.830  0.8112E+00  0.7221E+00
  -8.820  0.8155E+00  0.7302E+00
  -8.810  0.8198E+00  0.7384E+00
  -8.800  0.8240E+00  0.7467E+00
  -8.790  0.8281E+00  0.7549E+00
  -8.780  0.8321E+00  0.7633E+00
  -8.770  0.8358E+00  0.7716E+00
  -8.760  0.8392E+00  0.7800E+00
  -8.750  0.8424E+00  0.7884E+00
  -8.740  0.8453E+00  0.7969E+00
  -8.730  0.8480E+00  0.8054E+00
  -8.720  0.8504E+00  0.8139E+00
  -8.710  0.8526E+00  0.8224E+00
  -8.700  0.8547E+00  0.8309E+00
  -8.690  0.8566E+00  0.8395E+00
  -8.680  0.8585E+00  0.8481E+00
  -8.670  0.8604E+00  0.8567E+00
  -8.660  0.8623E+00  0.8653E+00
  -8.650  0.8644E+00  0.8740E+00
  -8.640  0.8666E+00  0.8826E+00
  -8.630  0.8691E+00  0.8913E+00
  -8.620  0.8719E+00  0.9000E+00
  -8.610  0.8752E+00  0.9088E+00
  -8.600  0.8789E+00  0.9176E+00
  -8.590  0.8831E+00  0.9264E+00
  -8.580  0.8880E+00  0.9353E+00
  -8.570  0.8935E+00  0.9442E+00
  -8.560  0.8996E+00  0.9532E+00
  -8.550  0.9064E+00  0.9623E+00
  -8.540  0.9138E+00  0.9714E+00
  -8.530  0.9218E+00  0.9806E+00
  -8.520  0.9304E+00  0.9900E+00
  -8.510  0.9394E+00  0.9993E+00
  -8.500  0.9488E+00  0.1009E+01
  -8.490  0.9585E+00  0.1018E+01
  -8.480  0.9684E+00  0.1028E+01
  -8.470  0.9783E+00  0.1038E+01
  -8.460  0.9883E+00  0.1048E+01
  -8.450  0.9982E+00  0.1058E+01
  -8.440  0.1008E+01  0.1068E+01
  -8.430  0.1018E+01  0.1078E+01
  -8.420  0.1027E+01  0.1088E+01
  -8.410  0.1036E+01  0.1099E+01
  -8.400  0.1045E+01  0.1109E+01
  -8.390  0.1054E+01  0.1120E+01
  -8.380  0.1063E+01  0.1130E+01
  -8.370  0.1071E+01  0.1141E+01
  -8.360  0.1079E+01  0.1152E+01
  -8.350  0.1086E+01  0.1163E+01
  -8.340  0.1093E+01  0.1174E+01
  -8.330  0.1100E+01  0.1185E+01
  -8.320  0.1106E+01  0.1196E+01
  -8.310  0.1111E+01  0.1207E+01
  -8.300  0.1115E+01  0.1218E+01
  -8.290  0.1118E+01  0.1229E+01
  -8.280  0.1120E+01  0.1240E+01
  -8.270  0.1120E+01  0.1251E+01
  -8.260  0.1120E+01  0.1263E+01
  -8.250  0.1118E+01  0.1274E+01
  -8.240  0.1114E+01  0.1285E+01
  -8.230  0.1109E+01  0.1296E+01
  -8.220  0.1103E+01  0.1307E+01
  -8.210  0.1096E+01  0.1318E+01
  -8.200  0.1088E+01  0.1329E+01
  -8.190  0.1078E+01  0.1340E+01
  -8.180  0.1068E+01  0.1350E+01
  -8.170  0.1057E+01  0.1361E+01
  -8.160  0.1046E+01  0.1371E+01
  -8.150  0.1034E+01  0.1382E+01
  -8.140  0.1023E+01  0.1392E+01
  -8.130  0.1011E+01  0.1402E+01
  -8.120  0.9993E+00  0.1412E+01
  -8.110  0.9880E+00  0.1422E+01
  -8.100  0.9770E+00  0.1432E+01
  -8.090  0.9665E+00  0.1441E+01
  -8.080  0.9565E+00  0.1451E+01
  -8.070  0.9470E+00  0.1460E+01
  -8.060  0.9380E+00  0.1470E+01
  -8.050  0.9295E+00  0.1479E+01
  -8.040  0.9214E+00  0.1488E+01
  -8.030  0.9138E+00  0.1497E+01
  -8.020  0.9066E+00  0.1507E+01
  -8.010  0.8997E+00  0.1516E+01
  -8.000  0.8931E+00  0.1524E+01
  -7.990  0.8868E+00  0.1533E+01
  -7.980  0.8807E+00  0.1542E+01
  -7.970  0.8748E+00  0.1551E+01
  -7.960  0.8691E+00  0.1560E+01
  -7.950  0.8636E+00  0.1568E+01
  -7.940  0.8583E+00  0.1577E+01
  -7.930  0.8533E+00  0.1585E+01
  -7.920  0.8486E+00  0.1594E+01
  -7.910  0.8441E+00  0.1602E+01
  -7.900  0.8400E+00  0.1611E+01
  -7.890  0.8362E+00  0.1619E+01
  -7.880  0.8327E+00  0.1627E+01
  -7.870  0.8295E+00  0.1636E+01
  -7.860  0.8266E+00  0.1644E+01
  -7.850  0.8240E+00  0.1652E+01
  -7.840  0.8215E+00  0.1660E+01
  -7.830  0.8192E+00  0.1669E+01
  -7.820  0.8169E+00  0.1677E+01
  -7.810  0.8145E+00  0.1685E+01
  -7.800  0.8120E+00  0.1693E+01
  -7.790  0.8094E+00  0.1701E+01
  -7.780  0.8065E+00  0.1709E+01
  -7.770  0.8033E+00  0.1717E+01
  -7.760  0.7999E+00  0.1725E+01
  -7.750  0.7961E+00  0.1733E+01
  -7.740  0.7922E+00  0.1741E+01
  -7.730  0.7880E+00  0.1749E+01
  -7.720  0.7837E+00  0.1757E+01
  -7.710  0.7794E+00  0.1765E+01
  -7.700  0.7752E+00  0.1772E+01
  -7.690  0.7710E+00  0.1780E+01
  -7.680  0.7671E+00  0.1788E+01
  -7.670  0.7635E+00  0.1795E+01
  -7.660  0.7603E+00  0.1803E+01
  -7.650  0.7574E+00  0.1811E+01
  -7.640  0.7549E+00  0.1818E+01
  -7.630  0.7529E+00  0.1826E+01
  -7.620  0.7512E+00  0.1833E+01
  -7.610  0.7498E+00  0.1841E+01
  -7.600  0.7487E+00  0.1848E+01
  -7.590  0.7478E+00  0.1856E+01
  -7.580  0.7470E+00  0.1863E+01
  -7.570  0.7463E+00  0.1870E+01
  -7.560  0.7456E+00  0.1878E+01
  -7.550  0.7448E+00  0.1885E+01
  -7.540  0.7439E+00  0.1893E+01
  -7.530  0.7429E+00  0.1900E+01
  -7.520  0.7416E+00  0.1908E+01
  -7.510  0.7402E+00  0.1915E+01
  -7.500  0.7385E+00  0.1922E+01
  -7.490  0.7365E+00  0.1930E+01
  -7.480  0.7344E+00  0.1937E+01
  -7.470  0.7320E+00  0.1944E+01
  -7.460  0.7294E+00  0.1952E+01
  -7.450  0.7267E+00  0.1959E+01
  -7.440  0.7239E+00  0.1966E+01
  -7.430  0.7210E+00  0.1974E+01
  -7.420  0.7180E+00  0.1981E+01
  -7.410  0.7150E+00  0.1988E+01
  -7.400  0.7120E+00  0.1995E+01
  -7.390  0.7090E+00  0.2002E+01
  -7.380  0.7061E+00  0.2009E+01
  -7.370  0.7034E+00  0.2016E+01
  -7.360  0.7009E+00  0.2023E+01
  -7.350  0.6986E+00  0.2030E+01
  -7.340  0.6965E+00  0.2037E+01
  -7.330  0.6947E+00  0.2044E+01
  -7.320  0.6933E+00  0.2051E+01
  -7.310  0.6922E+00  0.2058E+01
  -7.300  0.6914E+00  0.2065E+01
  -7.290  0.6910E+00  0.2072E+01
  -7.280  0.6908E+00  0.2079E+01
  -7.270  0.6909E+00  0.2086E+01
  -7.260  0.6912E+00  0.2092E+01
  -7.250  0.6916E+00  0.2099E+01
  -7.240  0.6919E+00  0.2106E+01
  -7.230  0.6922E+00  0.2113E+01
  -7.220  0.6923E+00  0.2120E+01
  -7.210  0.6921E+00  0.2127E+01
  -7.200  0.6916E+00  0.2134E+01
  -7.190  0.6906E+00  0.2141E+01
  -7.180  0.6891E+00  0.2148E+01
  -7.170  0.6871E+00  0.2155E+01
  -7.160  0.6847E+00  0.2161E+01
  -7.150  0.6818E+00  0.2168E+01
  -7.140  0.6786E+00  0.2175E+01
  -7.130  0.6752E+00  0.2182E+01
  -7.120  0.6716E+00  0.2189E+01
  -7.110  0.6681E+00  0.2195E+01
  -7.100  0.6647E+00  0.2202E+01
  -7.090  0.6615E+00  0.2209E+01
  -7.080  0.6587E+00  0.2215E+01
  -7.070  0.6564E+00  0.2222E+01
  -7.060  0.6545E+00  0.2228E+01
  -7.050  0.6532E+00  0.2235E+01
  -7.040  0.6524E+00  0.2241E+01
  -7.030  0.6522E+00  0.2248E+01
  -7.020  0.6523E+00  0.2254E+01
  -7.010  0.6529E+00  0.2261E+01
  -7.000  0.6537E+00  0.2267E+01
  -6.990  0.6547E+00  0.2274E+01
  -6.980  0.6558E+00  0.2280E+01
  -6.970  0.6568E+00  0.2287E+01
  -6.960  0.6577E+00  0.2294E+01
  -6.950  0.6582E+00  0.2300E+01
  -6.940  0.6585E+00  0.2307E+01
  -6.930  0.6583E+00  0.2313E+01
  -6.920  0.6577E+00  0.2320E+01
  -6.910  0.6566E+00  0.2327E+01
  -6.900  0.6550E+00  0.2333E+01
  -6.890  0.6530E+00  0.2340E+01
  -6.880  0.6505E+00  0.2346E+01
  -6.870  0.6477E+00  0.2353E+01
  -6.860  0.6447E+00  0.2359E+01
  -6.850  0.6415E+00  0.2365E+01
  -6.840  0.6383E+00  0.2372E+01
  -6.830  0.6352E+00  0.2378E+01
  -6.820  0.6323E+00  0.2384E+01
  -6.810  0.6297E+00  0.2391E+01
  -6.800  0.6276E+00  0.2397E+01
  -6.790  0.6260E+00  0.2403E+01
  -6.780  0.6249E+00  0.2410E+01
  -6.770  0.6243E+00  0.2416E+01
  -6.760  0.6243E+00  0.2422E+01
  -6.750  0.6248E+00  0.2428E+01
  -6.740  0.6256E+00  0.2435E+01
  -6.730  0.6267E+00  0.2441E+01
  -6.720  0.6279E+00  0.2447E+01
  -6.710  0.6291E+00  0.2453E+01
  -6.700  0.6302E+00  0.2460E+01
  -6.690  0.6310E+00  0.2466E+01
  -6.680  0.6314E+00  0.2472E+01
  -6.670  0.6313E+00  0.2479E+01
  -6.660  0.6307E+00  0.2485E+01
  -6.650  0.6297E+00  0.2491E+01
  -6.640  0.6281E+00  0.2498E+01
  -6.630  0.6261E+00  0.2504E+01
  -6.620  0.6238E+00  0.2510E+01
  -6.610  0.6212E+00  0.2516E+01
  -6.600  0.6186E+00  0.2522E+01
  -6.590  0.6160E+00  0.2529E+01
  -6.580  0.6136E+00  0.2535E+01
  -6.570  0.6115E+00  0.2541E+01
  -6.560  0.6096E+00  0.2547E+01
  -6.550  0.6082E+00  0.2553E+01
  -6.540  0.6071E+00  0.2559E+01
  -6.530  0.6064E+00  0.2565E+01
  -6.520  0.6061E+00  0.2571E+01
  -6.510  0.6061E+00  0.2577E+01
  -6.500  0.6062E+00  0.2583E+01
  -6.490  0.6065E+00  0.2589E+01
  -6.480  0.6069E+00  0.2595E+01
  -6.470  0.6072E+00  0.2602E+01
  -6.460  0.6074E+00  0.2608E+01
  -6.450  0.6074E+00  0.2614E+01
  -6.440  0.6073E+00  0.2620E+01
  -6.430  0.6070E+00  0.2626E+01
  -6.420  0.6065E+00  0.2632E+01
  -6.410  0.6059E+00  0.2638E+01
  -6.400  0.6051E+00  0.2644E+01
  -6.390  0.6042E+00  0.2650E+01
  -6.380  0.6032E+00  0.2656E+01
  -6.370  0.6021E+00  0.2662E+01
  -6.360  0.6010E+00  0.2668E+01
  -6.350  0.5998E+00  0.2674E+01
  -6.340  0.5986E+00  0.2680E+01
  -6.330  0.5974E+00  0.2686E+01
  -6.320  0.5961E+00  0.2692E+01
  -6.310  0.5949E+00  0.2698E+01
  -6.300  0.5936E+00  0.2704E+01
  -6.290  0.5924E+00  0.2710E+01
  -6.280  0.5912E+00  0.2716E+01
  -6.270  0.5902E+00  0.2722E+01
  -6.260  0.5893E+00  0.2728E+01
  -6.250  0.5885E+00  0.2733E+01
  -6.240  0.5880E+00  0.2739E+01
  -6.230  0.5877E+00  0.2745E+01
  -6.220  0.5876E+00  0.2751E+01
  -6.210  0.5877E+00  0.2757E+01
  -6.200  0.5881E+00  0.2763E+01
  -6.190  0.5885E+00  0.2769E+01
  -6.180  0.5891E+00  0.2775E+01
  -6.170  0.5896E+00  0.2780E+01
  -6.160  0.5900E+00  0.2786E+01
  -6.150  0.5902E+00  0.2792E+01
  -6.140  0.5901E+00  0.2798E+01
  -6.130  0.5896E+00  0.2804E+01
  -6.120  0.5888E+00  0.2810E+01
  -6.110  0.5877E+00  0.2816E+01
  -6.100  0.5861E+00  0.2822E+01
  -6.090  0.5843E+00  0.2828E+01
  -6.080  0.5822E+00  0.2833E+01
  -6.070  0.5800E+00  0.2839E+01
  -6.060  0.5779E+00  0.2845E+01
  -6.050  0.5758E+00  0.2851E+01
  -6.040  0.5740E+00  0.2856E+01
  -6.030  0.5726E+00  0.2862E+01
  -6.020  0.5716E+00  0.2868E+01
  -6.010  0.5711E+00  0.2874E+01
  -6.000  0.5711E+00  0.2879E+01
  -5.990  0.5716E+00  0.2885E+01
  -5.980  0.5725E+00  0.2891E+01
  -5.970  0.5737E+00  0.2896E+01
  -5.960  0.5752E+00  0.2902E+01
  -5.950  0.5767E+00  0.2908E+01
  -5.940  0.5781E+00  0.2914E+01
  -5.930  0.5793E+00  0.2920E+01
  -5.920  0.5802E+00  0.2925E+01
  -5.910  0.5807E+00  0.2931E+01
  -5.900  0.5807E+00  0.2937E+01
  -5.890  0.5802E+00  0.2943E+01
  -5.880  0.5791E+00  0.2949E+01
  -5.870  0.5776E+00  0.2954E+01
  -5.860  0.5756E+00  0.2960E+01
  -5.850  0.5733E+00  0.2966E+01
  -5.840  0.5708E+00  0.2972E+01
  -5.830  0.5682E+00  0.2977E+01
  -5.820  0.5657E+00  0.2983E+01
  -5.810  0.5634E+00  0.2989E+01
  -5.800  0.5614E+00  0.2994E+01
  -5.790  0.5598E+00  0.3000E+01
  -5.780  0.5586E+00  0.3005E+01
  -5.770  0.5579E+00  0.3011E+01
  -5.760  0.5578E+00  0.3017E+01
  -5.750  0.5582E+00  0.3022E+01
  -5.740  0.5590E+00  0.3028E+01
  -5.730  0.5602E+00  0.3033E+01
  -5.720  0.5617E+00  0.3039E+01
  -5.710  0.5634E+00  0.3045E+01
  -5.700  0.5653E+00  0.3050E+01
  -5.690  0.5670E+00  0.3056E+01
  -5.680  0.5687E+00  0.3062E+01
  -5.670  0.5700E+00  0.3067E+01
  -5.660  0.5710E+00  0.3073E+01
  -5.650  0.5716E+00  0.3079E+01
  -5.640  0.5717E+00  0.3084E+01
  -5.630  0.5713E+00  0.3090E+01
  -5.620  0.5703E+00  0.3096E+01
  -5.610  0.5689E+00  0.3101E+01
  -5.600  0.5670E+00  0.3107E+01
  -5.590  0.5647E+00  0.3113E+01
  -5.580  0.5621E+00  0.3118E+01
  -5.570  0.5594E+00  0.3124E+01
  -5.560  0.5567E+00  0.3130E+01
  -5.550  0.5541E+00  0.3135E+01
  -5.540  0.5518E+00  0.3141E+01
  -5.530  0.5499E+00  0.3146E+01
  -5.520  0.5484E+00  0.3152E+01
  -5.510  0.5475E+00  0.3157E+01
  -5.500  0.5472E+00  0.3163E+01
  -5.490  0.5476E+00  0.3168E+01
  -5.480  0.5485E+00  0.3174E+01
  -5.470  0.5499E+00  0.3179E+01
  -5.460  0.5518E+00  0.3185E+01
  -5.450  0.5540E+00  0.3190E+01
  -5.440  0.5564E+00  0.3196E+01
  -5.430  0.5588E+00  0.3201E+01
  -5.420  0.5610E+00  0.3207E+01
  -5.410  0.5631E+00  0.3212E+01
  -5.400  0.5647E+00  0.3218E+01
  -5.390  0.5659E+00  0.3224E+01
  -5.380  0.5666E+00  0.3229E+01
  -5.370  0.5666E+00  0.3235E+01
  -5.360  0.5661E+00  0.3241E+01
  -5.350  0.5650E+00  0.3246E+01
  -5.340  0.5634E+00  0.3252E+01
  -5.330  0.5613E+00  0.3258E+01
  -5.320  0.5590E+00  0.3263E+01
  -5.310  0.5564E+00  0.3269E+01
  -5.300  0.5537E+00  0.3274E+01
  -5.290  0.5510E+00  0.3280E+01
  -5.280  0.5485E+00  0.3285E+01
  -5.270  0.5463E+00  0.3291E+01
  -5.260  0.5445E+00  0.3296E+01
  -5.250  0.5432E+00  0.3302E+01
  -5.240  0.5424E+00  0.3307E+01
  -5.230  0.5422E+00  0.3313E+01
  -5.220  0.5425E+00  0.3318E+01
  -5.210  0.5434E+00  0.3323E+01
  -5.200  0.5448E+00  0.3329E+01
  -5.190  0.5467E+00  0.3334E+01
  -5.180  0.5488E+00  0.3340E+01
  -5.170  0.5512E+00  0.3345E+01
  -5.160  0.5537E+00  0.3351E+01
  -5.150  0.5560E+00  0.3356E+01
  -5.140  0.5582E+00  0.3362E+01
  -5.130  0.5600E+00  0.3368E+01
  -5.120  0.5613E+00  0.3373E+01
  -5.110  0.5619E+00  0.3379E+01
  -5.100  0.5618E+00  0.3384E+01
  -5.090  0.5610E+00  0.3390E+01
  -5.080  0.5593E+00  0.3396E+01
  -5.070  0.5567E+00  0.3401E+01
  -5.060  0.5532E+00  0.3407E+01
  -5.050  0.5489E+00  0.3412E+01
  -5.040  0.5439E+00  0.3418E+01
  -5.030  0.5382E+00  0.3423E+01
  -5.020  0.5319E+00  0.3428E+01
  -5.010  0.5251E+00  0.3434E+01
  -5.000  0.5180E+00  0.3439E+01
  -4.990  0.5107E+00  0.3444E+01
  -4.980  0.5032E+00  0.3449E+01
  -4.970  0.4958E+00  0.3454E+01
  -4.960  0.4884E+00  0.3459E+01
  -4.950  0.4813E+00  0.3464E+01
  -4.940  0.4744E+00  0.3468E+01
  -4.930  0.4678E+00  0.3473E+01
  -4.920  0.4616E+00  0.3478E+01
  -4.910  0.4557E+00  0.3482E+01
  -4.900  0.4501E+00  0.3487E+01
  -4.890  0.4449E+00  0.3491E+01
  -4.880  0.4399E+00  0.3496E+01
  -4.870  0.4351E+00  0.3500E+01
  -4.860  0.4304E+00  0.3504E+01
  -4.850  0.4258E+00  0.3508E+01
  -4.840  0.4212E+00  0.3513E+01
  -4.830  0.4166E+00  0.3517E+01
  -4.820  0.4119E+00  0.3521E+01
  -4.810  0.4072E+00  0.3525E+01
  -4.800  0.4023E+00  0.3529E+01
  -4.790  0.3973E+00  0.3533E+01
  -4.780  0.3923E+00  0.3537E+01
  -4.770  0.3873E+00  0.3541E+01
  -4.760  0.3824E+00  0.3545E+01
  -4.750  0.3777E+00  0.3548E+01
  -4.740  0.3733E+00  0.3552E+01
  -4.730  0.3693E+00  0.3556E+01
  -4.720  0.3657E+00  0.3560E+01
  -4.710  0.3629E+00  0.3563E+01
  -4.700  0.3607E+00  0.3567E+01
  -4.690  0.3593E+00  0.3570E+01
  -4.680  0.3588E+00  0.3574E+01
  -4.670  0.3592E+00  0.3578E+01
  -4.660  0.3605E+00  0.3581E+01
  -4.650  0.3627E+00  0.3585E+01
  -4.640  0.3657E+00  0.3588E+01
  -4.630  0.3694E+00  0.3592E+01
  -4.620  0.3737E+00  0.3596E+01
  -4.610  0.3785E+00  0.3600E+01
  -4.600  0.3837E+00  0.3603E+01
  -4.590  0.3890E+00  0.3607E+01
  -4.580  0.3943E+00  0.3611E+01
  -4.570  0.3994E+00  0.3615E+01
  -4.560  0.4041E+00  0.3619E+01
  -4.550  0.4085E+00  0.3623E+01
  -4.540  0.4122E+00  0.3628E+01
  -4.530  0.4154E+00  0.3632E+01
  -4.520  0.4179E+00  0.3636E+01
  -4.510  0.4197E+00  0.3640E+01
  -4.500  0.4208E+00  0.3644E+01
  -4.490  0.4215E+00  0.3648E+01
  -4.480  0.4216E+00  0.3653E+01
  -4.470  0.4215E+00  0.3657E+01
  -4.460  0.4213E+00  0.3661E+01
  -4.450  0.4212E+00  0.3665E+01
  -4.440  0.4213E+00  0.3670E+01
  -4.430  0.4218E+00  0.3674E+01
  -4.420  0.4230E+00  0.3678E+01
  -4.410  0.4251E+00  0.3682E+01
  -4.400  0.4280E+00  0.3687E+01
  -4.390  0.4321E+00  0.3691E+01
  -4.380  0.4373E+00  0.3695E+01
  -4.370  0.4436E+00  0.3700E+01
  -4.360  0.4511E+00  0.3704E+01
  -4.350  0.4597E+00  0.3709E+01
  -4.340  0.4692E+00  0.3713E+01
  -4.330  0.4795E+00  0.3718E+01
  -4.320  0.4904E+00  0.3723E+01
  -4.310  0.5017E+00  0.3728E+01
  -4.300  0.5130E+00  0.3733E+01
  -4.290  0.5240E+00  0.3739E+01
  -4.280  0.5345E+00  0.3744E+01
  -4.270  0.5442E+00  0.3749E+01
  -4.260  0.5528E+00  0.3755E+01
  -4.250  0.5599E+00  0.3760E+01
  -4.240  0.5655E+00  0.3766E+01
  -4.230  0.5694E+00  0.3772E+01
  -4.220  0.5714E+00  0.3778E+01
  -4.210  0.5715E+00  0.3783E+01
  -4.200  0.5697E+00  0.3789E+01
  -4.190  0.5662E+00  0.3795E+01
  -4.180  0.5610E+00  0.3800E+01
  -4.170  0.5544E+00  0.3806E+01
  -4.160  0.5467E+00  0.3811E+01
  -4.150  0.5382E+00  0.3817E+01
  -4.140  0.5291E+00  0.3822E+01
  -4.130  0.5198E+00  0.3827E+01
  -4.120  0.5106E+00  0.3832E+01
  -4.110  0.5017E+00  0.3837E+01
  -4.100  0.4935E+00  0.3842E+01
  -4.090  0.4860E+00  0.3847E+01
  -4.080  0.4793E+00  0.3852E+01
  -4.070  0.4736E+00  0.3857E+01
  -4.060  0.4686E+00  0.3861E+01
  -4.050  0.4644E+00  0.3866E+01
  -4.040  0.4607E+00  0.3870E+01
  -4.030  0.4573E+00  0.3875E+01
  -4.020  0.4539E+00  0.3880E+01
  -4.010  0.4503E+00  0.3884E+01
  -4.000  0.4462E+00  0.3889E+01
  -3.990  0.4414E+00  0.3893E+01
  -3.980  0.4356E+00  0.3897E+01
  -3.970  0.4289E+00  0.3902E+01
