#  E (eV)   dos(E)     Int dos(E) EFermi =   -1.763 eV
 -10.000  0.6737E+00  0.6737E-02
  -9.990  0.6965E+00  0.1370E-01
  -9.980  0.7143E+00  0.2085E-01
  -9.970  0.7267E+00  0.2811E-01
  -9.960  0.7336E+00  0.3545E-01
  -9.950  0.7352E+00  0.4280E-01
  -9.940  0.7317E+00  0.5012E-01
  -9.930  0.7235E+00  0.5735E-01
  -9.920  0.7111E+00  0.6446E-01
  -9.910  0.6952E+00  0.7141E-01
  -9.900  0.6766E+00  0.7818E-01
  -9.890  0.6560E+00  0.8474E-01
  -9.880  0.6342E+00  0.9108E-01
  -9.870  0.6120E+00  0.9720E-01
  -9.860  0.5900E+00  0.1031E+00
  -9.850  0.5687E+00  0.1088E+00
  -9.840  0.5488E+00  0.1143E+00
  -9.830  0.5305E+00  0.1196E+00
  -9.820  0.5141E+00  0.1247E+00
  -9.810  0.4997E+00  0.1297E+00
  -9.800  0.4873E+00  0.1346E+00
  -9.790  0.4768E+00  0.1394E+00
  -9.780  0.4680E+00  0.1440E+00
  -9.770  0.4606E+00  0.1487E+00
  -9.760  0.4544E+00  0.1532E+00
  -9.750  0.4491E+00  0.1577E+00
  -9.740  0.4442E+00  0.1621E+00
  -9.730  0.4395E+00  0.1665E+00
  -9.720  0.4347E+00  0.1709E+00
  -9.710  0.4296E+00  0.1752E+00
  -9.700  0.4237E+00  0.1794E+00
  -9.690  0.4171E+00  0.1836E+00
  -9.680  0.4095E+00  0.1877E+00
  -9.670  0.4009E+00  0.1917E+00
  -9.660  0.3913E+00  0.1956E+00
  -9.650  0.3807E+00  0.1994E+00
  -9.640  0.3694E+00  0.2031E+00
  -9.630  0.3575E+00  0.2067E+00
  -9.620  0.3454E+00  0.2101E+00
  -9.610  0.3334E+00  0.2135E+00
  -9.600  0.3219E+00  0.2167E+00
  -9.590  0.3115E+00  0.2198E+00
  -9.580  0.3027E+00  0.2228E+00
  -9.570  0.2960E+00  0.2258E+00
  -9.560  0.2919E+00  0.2287E+00
  -9.550  0.2910E+00  0.2316E+00
  -9.540  0.2937E+00  0.2345E+00
  -9.530  0.3005E+00  0.2375E+00
  -9.520  0.3117E+00  0.2407E+00
  -9.510  0.3274E+00  0.2439E+00
  -9.500  0.3478E+00  0.2474E+00
  -9.490  0.3728E+00  0.2511E+00
  -9.480  0.4022E+00  0.2552E+00
  -9.470  0.4356E+00  0.2595E+00
  -9.460  0.4726E+00  0.2642E+00
  -9.450  0.5125E+00  0.2694E+00
  -9.440  0.5547E+00  0.2749E+00
  -9.430  0.5983E+00  0.2809E+00
  -9.420  0.6424E+00  0.2873E+00
  -9.410  0.6860E+00  0.2942E+00
  -9.400  0.7283E+00  0.3015E+00
  -9.390  0.7683E+00  0.3092E+00
  -9.380  0.8050E+00  0.3172E+00
  -9.370  0.8377E+00  0.3256E+00
  -9.360  0.8657E+00  0.3342E+00
  -9.350  0.8884E+00  0.3431E+00
  -9.340  0.9053E+00  0.3522E+00
  -9.330  0.9162E+00  0.3613E+00
  -9.320  0.9209E+00  0.3705E+00
  -9.310  0.9195E+00  0.3797E+00
  -9.300  0.9122E+00  0.3889E+00
  -9.290  0.8994E+00  0.3979E+00
  -9.280  0.8816E+00  0.4067E+00
  -9.270  0.8594E+00  0.4153E+00
  -9.260  0.8336E+00  0.4236E+00
  -9.250  0.8050E+00  0.4317E+00
  -9.240  0.7746E+00  0.4394E+00
  -9.230  0.7432E+00  0.4468E+00
  -9.220  0.7120E+00  0.4540E+00
  -9.210  0.6819E+00  0.4608E+00
  -9.200  0.6538E+00  0.4673E+00
  -9.190  0.6287E+00  0.4736E+00
  -9.180  0.6075E+00  0.4797E+00
  -9.170  0.5908E+00  0.4856E+00
  -9.160  0.5795E+00  0.4914E+00
  -9.150  0.5740E+00  0.4971E+00
  -9.140  0.5748E+00  0.5029E+00
  -9.130  0.5819E+00  0.5087E+00
  -9.120  0.5954E+00  0.5146E+00
  -9.110  0.6152E+00  0.5208E+00
  -9.100  0.6408E+00  0.5272E+00
  -9.090  0.6716E+00  0.5339E+00
  -9.080  0.7067E+00  0.5410E+00
  -9.070  0.7452E+00  0.5484E+00
  -9.060  0.7860E+00  0.5563E+00
  -9.050  0.8277E+00  0.5646E+00
  -9.040  0.8690E+00  0.5733E+00
  -9.030  0.9086E+00  0.5823E+00
  -9.020  0.9451E+00  0.5918E+00
  -9.010  0.9774E+00  0.6016E+00
  -9.000  0.1004E+01  0.6116E+00
  -8.990  0.1025E+01  0.6219E+00
  -8.980  0.1039E+01  0.6323E+00
  -8.970  0.1046E+01  0.6427E+00
  -8.960  0.1046E+01  0.6532E+00
  -8.950  0.1039E+01  0.6636E+00
  -8.940  0.1025E+01  0.6738E+00
  -8.930  0.1006E+01  0.6839E+00
  -8.920  0.9815E+00  0.6937E+00
  -8.910  0.9533E+00  0.7032E+00
  -8.900  0.9223E+00  0.7124E+00
  -8.890  0.8895E+00  0.7213E+00
  -8.880  0.8560E+00  0.7299E+00
  -8.870  0.8228E+00  0.7381E+00
  -8.860  0.7907E+00  0.7460E+00
  -8.850  0.7604E+00  0.7536E+00
  -8.840  0.7325E+00  0.7610E+00
  -8.830  0.7074E+00  0.7680E+00
  -8.820  0.6854E+00  0.7749E+00
  -8.810  0.6666E+00  0.7816E+00
  -8.800  0.6510E+00  0.7881E+00
  -8.790  0.6386E+00  0.7945E+00
  -8.780  0.6293E+00  0.8007E+00
  -8.770  0.6229E+00  0.8070E+00
  -8.760  0.6193E+00  0.8132E+00
  -8.750  0.6184E+00  0.8194E+00
  -8.740  0.6201E+00  0.8256E+00
  -8.730  0.6241E+00  0.8318E+00
  -8.720  0.6306E+00  0.8381E+00
  -8.710  0.6394E+00  0.8445E+00
  -8.700  0.6504E+00  0.8510E+00
  -8.690  0.6637E+00  0.8576E+00
  -8.680  0.6792E+00  0.8644E+00
  -8.670  0.6968E+00  0.8714E+00
  -8.660  0.7166E+00  0.8786E+00
  -8.650  0.7384E+00  0.8859E+00
  -8.640  0.7621E+00  0.8936E+00
  -8.630  0.7877E+00  0.9014E+00
  -8.620  0.8150E+00  0.9096E+00
  -8.610  0.8437E+00  0.9180E+00
  -8.600  0.8736E+00  0.9268E+00
  -8.590  0.9044E+00  0.9358E+00
  -8.580  0.9358E+00  0.9452E+00
  -8.570  0.9673E+00  0.9548E+00
  -8.560  0.9986E+00  0.9648E+00
  -8.550  0.1029E+01  0.9751E+00
  -8.540  0.1058E+01  0.9857E+00
  -8.530  0.1085E+01  0.9966E+00
  -8.520  0.1110E+01  0.1008E+01
  -8.510  0.1132E+01  0.1019E+01
  -8.500  0.1151E+01  0.1030E+01
  -8.490  0.1165E+01  0.1042E+01
  -8.480  0.1175E+01  0.1054E+01
  -8.470  0.1181E+01  0.1066E+01
  -8.460  0.1182E+01  0.1078E+01
  -8.450  0.1179E+01  0.1089E+01
  -8.440  0.1171E+01  0.1101E+01
  -8.430  0.1159E+01  0.1113E+01
  -8.420  0.1143E+01  0.1124E+01
  -8.410  0.1124E+01  0.1135E+01
  -8.400  0.1102E+01  0.1146E+01
  -8.390  0.1078E+01  0.1157E+01
  -8.380  0.1053E+01  0.1168E+01
  -8.370  0.1027E+01  0.1178E+01
  -8.360  0.1002E+01  0.1188E+01
  -8.350  0.9771E+00  0.1198E+01
  -8.340  0.9540E+00  0.1207E+01
  -8.330  0.9333E+00  0.1217E+01
  -8.320  0.9156E+00  0.1226E+01
  -8.310  0.9015E+00  0.1235E+01
  -8.300  0.8914E+00  0.1244E+01
  -8.290  0.8859E+00  0.1253E+01
  -8.280  0.8851E+00  0.1261E+01
  -8.270  0.8894E+00  0.1270E+01
  -8.260  0.8987E+00  0.1279E+01
  -8.250  0.9130E+00  0.1288E+01
  -8.240  0.9321E+00  0.1298E+01
  -8.230  0.9557E+00  0.1307E+01
  -8.220  0.9833E+00  0.1317E+01
  -8.210  0.1014E+01  0.1327E+01
  -8.200  0.1048E+01  0.1338E+01
  -8.190  0.1083E+01  0.1349E+01
  -8.180  0.1118E+01  0.1360E+01
  -8.170  0.1154E+01  0.1371E+01
  -8.160  0.1188E+01  0.1383E+01
  -8.150  0.1220E+01  0.1395E+01
  -8.140  0.1248E+01  0.1408E+01
  -8.130  0.1272E+01  0.1421E+01
  -8.120  0.1291E+01  0.1433E+01
  -8.110  0.1304E+01  0.1446E+01
  -8.100  0.1311E+01  0.1460E+01
  -8.090  0.1311E+01  0.1473E+01
  -8.080  0.1305E+01  0.1486E+01
  -8.070  0.1291E+01  0.1499E+01
  -8.060  0.1270E+01  0.1511E+01
  -8.050  0.1243E+01  0.1524E+01
  -8.040  0.1209E+01  0.1536E+01
  -8.030  0.1170E+01  0.1548E+01
  -8.020  0.1127E+01  0.1559E+01
  -8.010  0.1079E+01  0.1570E+01
  -8.000  0.1028E+01  0.1580E+01
  -7.990  0.9758E+00  0.1590E+01
  -7.980  0.9223E+00  0.1599E+01
  -7.970  0.8690E+00  0.1608E+01
  -7.960  0.8169E+00  0.1616E+01
  -7.950  0.7671E+00  0.1623E+01
  -7.940  0.7207E+00  0.1631E+01
  -7.930  0.6786E+00  0.1637E+01
  -7.920  0.6414E+00  0.1644E+01
  -7.910  0.6099E+00  0.1650E+01
  -7.900  0.5845E+00  0.1656E+01
  -7.890  0.5655E+00  0.1661E+01
  -7.880  0.5528E+00  0.1667E+01
  -7.870  0.5464E+00  0.1672E+01
  -7.860  0.5459E+00  0.1678E+01
  -7.850  0.5507E+00  0.1683E+01
  -7.840  0.5600E+00  0.1689E+01
  -7.830  0.5731E+00  0.1695E+01
  -7.820  0.5890E+00  0.1701E+01
  -7.810  0.6067E+00  0.1707E+01
  -7.800  0.6251E+00  0.1713E+01
  -7.790  0.6434E+00  0.1719E+01
  -7.780  0.6607E+00  0.1726E+01
  -7.770  0.6764E+00  0.1733E+01
  -7.760  0.6898E+00  0.1740E+01
  -7.750  0.7006E+00  0.1747E+01
  -7.740  0.7089E+00  0.1754E+01
  -7.730  0.7145E+00  0.1761E+01
  -7.720  0.7179E+00  0.1768E+01
  -7.710  0.7193E+00  0.1775E+01
  -7.700  0.7195E+00  0.1782E+01
  -7.690  0.7189E+00  0.1790E+01
  -7.680  0.7183E+00  0.1797E+01
  -7.670  0.7182E+00  0.1804E+01
  -7.660  0.7192E+00  0.1811E+01
  -7.650  0.7219E+00  0.1818E+01
  -7.640  0.7264E+00  0.1826E+01
  -7.630  0.7330E+00  0.1833E+01
  -7.620  0.7418E+00  0.1840E+01
  -7.610  0.7526E+00  0.1848E+01
  -7.600  0.7651E+00  0.1856E+01
  -7.590  0.7791E+00  0.1863E+01
  -7.580  0.7941E+00  0.1871E+01
  -7.570  0.8097E+00  0.1879E+01
  -7.560  0.8255E+00  0.1888E+01
  -7.550  0.8410E+00  0.1896E+01
  -7.540  0.8559E+00  0.1905E+01
  -7.530  0.8699E+00  0.1913E+01
  -7.520  0.8828E+00  0.1922E+01
  -7.510  0.8945E+00  0.1931E+01
  -7.500  0.9049E+00  0.1940E+01
  -7.490  0.9141E+00  0.1949E+01
  -7.480  0.9221E+00  0.1959E+01
  -7.470  0.9289E+00  0.1968E+01
  -7.460  0.9345E+00  0.1977E+01
  -7.450  0.9391E+00  0.1987E+01
  -7.440  0.9426E+00  0.1996E+01
  -7.430  0.9448E+00  0.2005E+01
  -7.420  0.9457E+00  0.2015E+01
  -7.410  0.9449E+00  0.2024E+01
  -7.400  0.9421E+00  0.2034E+01
  -7.390  0.9372E+00  0.2043E+01
  -7.380  0.9297E+00  0.2052E+01
  -7.370  0.9194E+00  0.2062E+01
  -7.360  0.9059E+00  0.2071E+01
  -7.350  0.8891E+00  0.2080E+01
  -7.340  0.8689E+00  0.2088E+01
  -7.330  0.8453E+00  0.2097E+01
  -7.320  0.8183E+00  0.2105E+01
  -7.310  0.7883E+00  0.2113E+01
  -7.300  0.7556E+00  0.2120E+01
  -7.290  0.7205E+00  0.2128E+01
  -7.280  0.6838E+00  0.2134E+01
  -7.270  0.6459E+00  0.2141E+01
  -7.260  0.6076E+00  0.2147E+01
  -7.250  0.5694E+00  0.2153E+01
  -7.240  0.5321E+00  0.2158E+01
  -7.230  0.4961E+00  0.2163E+01
  -7.220  0.4622E+00  0.2168E+01
  -7.210  0.4308E+00  0.2172E+01
  -7.200  0.4024E+00  0.2176E+01
  -7.190  0.3773E+00  0.2180E+01
  -7.180  0.3559E+00  0.2183E+01
  -7.170  0.3385E+00  0.2187E+01
  -7.160  0.3253E+00  0.2190E+01
  -7.150  0.3165E+00  0.2193E+01
  -7.140  0.3122E+00  0.2196E+01
  -7.130  0.3126E+00  0.2199E+01
  -7.120  0.3178E+00  0.2202E+01
  -7.110  0.3278E+00  0.2206E+01
  -7.100  0.3426E+00  0.2209E+01
  -7.090  0.3622E+00  0.2213E+01
  -7.080  0.3864E+00  0.2217E+01
  -7.070  0.4150E+00  0.2221E+01
  -7.060  0.4478E+00  0.2225E+01
  -7.050  0.4843E+00  0.2230E+01
  -7.040  0.5241E+00  0.2235E+01
  -7.030  0.5666E+00  0.2241E+01
  -7.020  0.6111E+00  0.2247E+01
  -7.010  0.6570E+00  0.2254E+01
  -7.000  0.7036E+00  0.2261E+01
  -6.990  0.7500E+00  0.2268E+01
  -6.980  0.7954E+00  0.2276E+01
  -6.970  0.8392E+00  0.2285E+01
  -6.960  0.8805E+00  0.2293E+01
  -6.950  0.9188E+00  0.2303E+01
  -6.940  0.9533E+00  0.2312E+01
  -6.930  0.9837E+00  0.2322E+01
  -6.920  0.1009E+01  0.2332E+01
  -6.910  0.1030E+01  0.2342E+01
  -6.900  0.1045E+01  0.2353E+01
  -6.890  0.1055E+01  0.2363E+01
  -6.880  0.1060E+01  0.2374E+01
  -6.870  0.1058E+01  0.2385E+01
  -6.860  0.1051E+01  0.2395E+01
  -6.850  0.1038E+01  0.2405E+01
  -6.840  0.1020E+01  0.2416E+01
  -6.830  0.9966E+00  0.2426E+01
  -6.820  0.9681E+00  0.2435E+01
  -6.810  0.9350E+00  0.2445E+01
  -6.800  0.8977E+00  0.2454E+01
  -6.790  0.8568E+00  0.2462E+01
  -6.780  0.8130E+00  0.2470E+01
  -6.770  0.7669E+00  0.2478E+01
  -6.760  0.7193E+00  0.2485E+01
  -6.750  0.6711E+00  0.2492E+01
  -6.740  0.6231E+00  0.2498E+01
  -6.730  0.5761E+00  0.2504E+01
  -6.720  0.5310E+00  0.2509E+01
  -6.710  0.4884E+00  0.2514E+01
  -6.700  0.4492E+00  0.2519E+01
  -6.690  0.4139E+00  0.2523E+01
  -6.680  0.3828E+00  0.2526E+01
  -6.670  0.3564E+00  0.2530E+01
  -6.660  0.3347E+00  0.2533E+01
  -6.650  0.3178E+00  0.2537E+01
  -6.640  0.3057E+00  0.2540E+01
  -6.630  0.2980E+00  0.2543E+01
  -6.620  0.2945E+00  0.2546E+01
  -6.610  0.2947E+00  0.2549E+01
  -6.600  0.2984E+00  0.2551E+01
  -6.590  0.3048E+00  0.2555E+01
  -6.580  0.3138E+00  0.2558E+01
  -6.570  0.3247E+00  0.2561E+01
  -6.560  0.3374E+00  0.2564E+01
  -6.550  0.3514E+00  0.2568E+01
  -6.540  0.3665E+00  0.2571E+01
  -6.530  0.3826E+00  0.2575E+01
  -6.520  0.3996E+00  0.2579E+01
  -6.510  0.4174E+00  0.2583E+01
  -6.500  0.4361E+00  0.2588E+01
  -6.490  0.4556E+00  0.2592E+01
  -6.480  0.4761E+00  0.2597E+01
  -6.470  0.4974E+00  0.2602E+01
  -6.460  0.5196E+00  0.2607E+01
  -6.450  0.5426E+00  0.2613E+01
  -6.440  0.5663E+00  0.2618E+01
  -6.430  0.5905E+00  0.2624E+01
  -6.420  0.6150E+00  0.2630E+01
  -6.410  0.6394E+00  0.2637E+01
  -6.400  0.6636E+00  0.2643E+01
  -6.390  0.6872E+00  0.2650E+01
  -6.380  0.7097E+00  0.2657E+01
  -6.370  0.7311E+00  0.2665E+01
  -6.360  0.7509E+00  0.2672E+01
  -6.350  0.7689E+00  0.2680E+01
  -6.340  0.7849E+00  0.2688E+01
  -6.330  0.7988E+00  0.2696E+01
  -6.320  0.8106E+00  0.2704E+01
  -6.310  0.8201E+00  0.2712E+01
  -6.300  0.8273E+00  0.2720E+01
  -6.290  0.8323E+00  0.2729E+01
  -6.280  0.8352E+00  0.2737E+01
  -6.270  0.8359E+00  0.2745E+01
  -6.260  0.8345E+00  0.2754E+01
  -6.250  0.8311E+00  0.2762E+01
  -6.240  0.8256E+00  0.2770E+01
  -6.230  0.8181E+00  0.2779E+01
  -6.220  0.8086E+00  0.2787E+01
  -6.210  0.7970E+00  0.2795E+01
  -6.200  0.7835E+00  0.2802E+01
  -6.190  0.7679E+00  0.2810E+01
  -6.180  0.7505E+00  0.2818E+01
  -6.170  0.7312E+00  0.2825E+01
  -6.160  0.7104E+00  0.2832E+01
  -6.150  0.6882E+00  0.2839E+01
  -6.140  0.6650E+00  0.2846E+01
  -6.130  0.6410E+00  0.2852E+01
  -6.120  0.6168E+00  0.2858E+01
  -6.110  0.5926E+00  0.2864E+01
  -6.100  0.5690E+00  0.2870E+01
  -6.090  0.5463E+00  0.2875E+01
  -6.080  0.5251E+00  0.2880E+01
  -6.070  0.5055E+00  0.2885E+01
  -6.060  0.4879E+00  0.2890E+01
  -6.050  0.4726E+00  0.2895E+01
  -6.040  0.4596E+00  0.2900E+01
  -6.030  0.4490E+00  0.2904E+01
  -6.020  0.4407E+00  0.2909E+01
  -6.010  0.4348E+00  0.2913E+01
  -6.000  0.4310E+00  0.2917E+01
  -5.990  0.4292E+00  0.2922E+01
  -5.980  0.4293E+00  0.2926E+01
  -5.970  0.4309E+00  0.2930E+01
  -5.960  0.4339E+00  0.2934E+01
  -5.950  0.4382E+00  0.2939E+01
  -5.940  0.4437E+00  0.2943E+01
  -5.930  0.4502E+00  0.2948E+01
  -5.920  0.4577E+00  0.2952E+01
  -5.910  0.4661E+00  0.2957E+01
  -5.900  0.4755E+00  0.2962E+01
  -5.890  0.4857E+00  0.2967E+01
  -5.880  0.4969E+00  0.2972E+01
  -5.870  0.5090E+00  0.2977E+01
  -5.860  0.5219E+00  0.2982E+01
  -5.850  0.5354E+00  0.2987E+01
  -5.840  0.5496E+00  0.2993E+01
  -5.830  0.5641E+00  0.2998E+01
  -5.820  0.5788E+00  0.3004E+01
  -5.810  0.5934E+00  0.3010E+01
  -5.800  0.6075E+00  0.3016E+01
  -5.790  0.6207E+00  0.3022E+01
  -5.780  0.6328E+00  0.3029E+01
  -5.770  0.6432E+00  0.3035E+01
  -5.760  0.6517E+00  0.3042E+01
  -5.750  0.6578E+00  0.3048E+01
  -5.740  0.6612E+00  0.3055E+01
  -5.730  0.6618E+00  0.3062E+01
  -5.720  0.6593E+00  0.3068E+01
  -5.710  0.6535E+00  0.3075E+01
  -5.700  0.6446E+00  0.3081E+01
  -5.690  0.6325E+00  0.3087E+01
  -5.680  0.6175E+00  0.3094E+01
  -5.670  0.5998E+00  0.3100E+01
  -5.660  0.5798E+00  0.3105E+01
  -5.650  0.5579E+00  0.3111E+01
  -5.640  0.5346E+00  0.3116E+01
  -5.630  0.5105E+00  0.3121E+01
  -5.620  0.4861E+00  0.3126E+01
  -5.610  0.4621E+00  0.3131E+01
  -5.600  0.4390E+00  0.3135E+01
  -5.590  0.4174E+00  0.3139E+01
  -5.580  0.3980E+00  0.3143E+01
  -5.570  0.3812E+00  0.3147E+01
  -5.560  0.3676E+00  0.3151E+01
  -5.550  0.3575E+00  0.3155E+01
  -5.540  0.3514E+00  0.3158E+01
  -5.530  0.3496E+00  0.3162E+01
  -5.520  0.3522E+00  0.3165E+01
  -5.510  0.3594E+00  0.3169E+01
  -5.500  0.3711E+00  0.3172E+01
  -5.490  0.3872E+00  0.3176E+01
  -5.480  0.4076E+00  0.3180E+01
  -5.470  0.4318E+00  0.3185E+01
  -5.460  0.4595E+00  0.3189E+01
  -5.450  0.4900E+00  0.3194E+01
  -5.440  0.5228E+00  0.3199E+01
  -5.430  0.5570E+00  0.3205E+01
  -5.420  0.5920E+00  0.3211E+01
  -5.410  0.6269E+00  0.3217E+01
  -5.400  0.6609E+00  0.3224E+01
  -5.390  0.6932E+00  0.3231E+01
  -5.380  0.7230E+00  0.3238E+01
  -5.370  0.7497E+00  0.3245E+01
  -5.360  0.7726E+00  0.3253E+01
  -5.350  0.7914E+00  0.3261E+01
  -5.340  0.8055E+00  0.3269E+01
  -5.330  0.8150E+00  0.3277E+01
  -5.320  0.8196E+00  0.3285E+01
  -5.310  0.8197E+00  0.3294E+01
  -5.300  0.8154E+00  0.3302E+01
  -5.290  0.8071E+00  0.3310E+01
  -5.280  0.7954E+00  0.3318E+01
  -5.270  0.7808E+00  0.3326E+01
  -5.260  0.7642E+00  0.3333E+01
  -5.250  0.7460E+00  0.3341E+01
  -5.240  0.7271E+00  0.3348E+01
  -5.230  0.7079E+00  0.3355E+01
  -5.220  0.6892E+00  0.3362E+01
  -5.210  0.6713E+00  0.3369E+01
  -5.200  0.6545E+00  0.3375E+01
  -5.190  0.6391E+00  0.3382E+01
  -5.180  0.6250E+00  0.3388E+01
  -5.170  0.6123E+00  0.3394E+01
  -5.160  0.6008E+00  0.3400E+01
  -5.150  0.5903E+00  0.3406E+01
  -5.140  0.5803E+00  0.3412E+01
  -5.130  0.5705E+00  0.3417E+01
  -5.120  0.5607E+00  0.3423E+01
  -5.110  0.5504E+00  0.3428E+01
  -5.100  0.5394E+00  0.3434E+01
  -5.090  0.5276E+00  0.3439E+01
  -5.080  0.5148E+00  0.3444E+01
  -5.070  0.5010E+00  0.3449E+01
  -5.060  0.4863E+00  0.3454E+01
  -5.050  0.4709E+00  0.3459E+01
  -5.040  0.4550E+00  0.3463E+01
  -5.030  0.4391E+00  0.3468E+01
  -5.020  0.4233E+00  0.3472E+01
  -5.010  0.4081E+00  0.3476E+01
  -5.000  0.3939E+00  0.3480E+01
  -4.990  0.3809E+00  0.3484E+01
  -4.980  0.3693E+00  0.3488E+01
  -4.970  0.3595E+00  0.3491E+01
  -4.960  0.3513E+00  0.3495E+01
  -4.950  0.3449E+00  0.3498E+01
  -4.940  0.3401E+00  0.3502E+01
  -4.930  0.3367E+00  0.3505E+01
  -4.920  0.3345E+00  0.3508E+01
  -4.910  0.3331E+00  0.3512E+01
  -4.900  0.3320E+00  0.3515E+01
  -4.890  0.3310E+00  0.3518E+01
  -4.880  0.3295E+00  0.3521E+01
  -4.870  0.3274E+00  0.3525E+01
  -4.860  0.3241E+00  0.3528E+01
  -4.850  0.3195E+00  0.3531E+01
  -4.840  0.3135E+00  0.3534E+01
  -4.830  0.3059E+00  0.3537E+01
  -4.820  0.2970E+00  0.3540E+01
  -4.810  0.2868E+00  0.3543E+01
  -4.800  0.2756E+00  0.3546E+01
  -4.790  0.2638E+00  0.3549E+01
  -4.780  0.2519E+00  0.3551E+01
  -4.770  0.2404E+00  0.3554E+01
  -4.760  0.2298E+00  0.3556E+01
  -4.750  0.2206E+00  0.3558E+01
  -4.740  0.2136E+00  0.3560E+01
  -4.730  0.2092E+00  0.3562E+01
  -4.720  0.2079E+00  0.3564E+01
  -4.710  0.2100E+00  0.3566E+01
  -4.700  0.2160E+00  0.3569E+01
  -4.690  0.2260E+00  0.3571E+01
  -4.680  0.2402E+00  0.3573E+01
  -4.670  0.2584E+00  0.3576E+01
  -4.660  0.2806E+00  0.3579E+01
  -4.650  0.3065E+00  0.3582E+01
  -4.640  0.3356E+00  0.3585E+01
  -4.630  0.3674E+00  0.3589E+01
  -4.620  0.4014E+00  0.3593E+01
  -4.610  0.4367E+00  0.3597E+01
  -4.600  0.4727E+00  0.3602E+01
  -4.590  0.5085E+00  0.3607E+01
  -4.580  0.5434E+00  0.3612E+01
  -4.570  0.5767E+00  0.3618E+01
  -4.560  0.6075E+00  0.3624E+01
  -4.550  0.6353E+00  0.3631E+01
  -4.540  0.6596E+00  0.3637E+01
  -4.530  0.6801E+00  0.3644E+01
  -4.520  0.6964E+00  0.3651E+01
  -4.510  0.7084E+00  0.3658E+01
  -4.500  0.7163E+00  0.3665E+01
  -4.490  0.7201E+00  0.3672E+01
  -4.480  0.7202E+00  0.3680E+01
  -4.470  0.7170E+00  0.3687E+01
  -4.460  0.7109E+00  0.3694E+01
  -4.450  0.7025E+00  0.3701E+01
  -4.440  0.6922E+00  0.3708E+01
  -4.430  0.6808E+00  0.3715E+01
  -4.420  0.6685E+00  0.3721E+01
  -4.410  0.6560E+00  0.3728E+01
  -4.400  0.6437E+00  0.3734E+01
  -4.390  0.6318E+00  0.3741E+01
  -4.380  0.6206E+00  0.3747E+01
  -4.370  0.6103E+00  0.3753E+01
  -4.360  0.6010E+00  0.3759E+01
  -4.350  0.5925E+00  0.3765E+01
  -4.340  0.5849E+00  0.3771E+01
  -4.330  0.5779E+00  0.3777E+01
  -4.320  0.5713E+00  0.3782E+01
  -4.310  0.5649E+00  0.3788E+01
  -4.300  0.5584E+00  0.3793E+01
  -4.290  0.5514E+00  0.3799E+01
  -4.280  0.5437E+00  0.3804E+01
  -4.270  0.5350E+00  0.3810E+01
  -4.260  0.5250E+00  0.3815E+01
  -4.250  0.5135E+00  0.3820E+01
  -4.240  0.5004E+00  0.3825E+01
  -4.230  0.4857E+00  0.3830E+01
  -4.220  0.4692E+00  0.3835E+01
  -4.210  0.4512E+00  0.3839E+01
  -4.200  0.4316E+00  0.3844E+01
  -4.190  0.4108E+00  0.3848E+01
  -4.180  0.3890E+00  0.3852E+01
  -4.170  0.3665E+00  0.3855E+01
  -4.160  0.3437E+00  0.3859E+01
  -4.150  0.3210E+00  0.3862E+01
  -4.140  0.2988E+00  0.3865E+01
  -4.130  0.2775E+00  0.3868E+01
  -4.120  0.2575E+00  0.3870E+01
  -4.110  0.2390E+00  0.3873E+01
  -4.100  0.2224E+00  0.3875E+01
  -4.090  0.2078E+00  0.3877E+01
  -4.080  0.1955E+00  0.3879E+01
  -4.070  0.1854E+00  0.3881E+01
  -4.060  0.1778E+00  0.3882E+01
  -4.050  0.1724E+00  0.3884E+01
  -4.040  0.1692E+00  0.3886E+01
  -4.030  0.1681E+00  0.3888E+01
  -4.020  0.1690E+00  0.3889E+01
  -4.010  0.1718E+00  0.3891E+01
  -4.000  0.1762E+00  0.3893E+01
  -3.990  0.1823E+00  0.3895E+01
  -3.980  0.1898E+00  0.3896E+01
  -3.970  0.1989E+00  0.3898E+01
