# energy grid [eV]     ieps_x  ieps_y  ieps_z
#
    0.000000000    2.225699652    2.225689417    1.630194040
    0.020020020    2.225671920    2.225661685    1.630187590
    0.040040040    2.225615813    2.225605579    1.630174543
    0.060060060    2.225539187    2.225528953    1.630156726
    0.080080080    2.225442146    2.225431913    1.630134163
    0.100100100    2.225324706    2.225314474    1.630106855
    0.120120120    2.225186883    2.225176652    1.630074805
    0.140140140    2.225028696    2.225018466    1.630038014
    0.160160160    2.224850169    2.224839940    1.629996485
    0.180180180    2.224651326    2.224641099    1.629950221
    0.200200200    2.224432196    2.224421971    1.629899226
    0.220220220    2.224192810    2.224182587    1.629843502
    0.240240240    2.223933203    2.223922982    1.629783054
    0.260260260    2.223653411    2.223643192    1.629717887
    0.280280280    2.223353473    2.223343256    1.629648003
    0.300300300    2.223033433    2.223023218    1.629573410
    0.320320320    2.222693335    2.222683123    1.629494111
    0.340340340    2.222333228    2.222323019    1.629410112
    0.360360360    2.221953162    2.221942956    1.629321420
    0.380380380    2.221553191    2.221542989    1.629228039
    0.400400400    2.221133372    2.221123172    1.629129978
    0.420420420    2.220693763    2.220683567    1.629027243
    0.440440440    2.220234425    2.220224233    1.628919840
    0.460460460    2.219755424    2.219745235    1.628807778
    0.480480480    2.219256826    2.219246641    1.628691063
    0.500500501    2.218738700    2.218728519    1.628569705
    0.520520521    2.218201118    2.218190941    1.628443712
    0.540540541    2.217644156    2.217633983    1.628313091
    0.560560561    2.217067889    2.217057721    1.628177853
    0.580580581    2.216472399    2.216462235    1.628038007
    0.600600601    2.215857766    2.215847606    1.627893561
    0.620620621    2.215224075    2.215213920    1.627744527
    0.640640641    2.214571413    2.214561263    1.627590913
    0.660660661    2.213899868    2.213889724    1.627432732
    0.680680681    2.213209534    2.213199395    1.627269992
    0.700700701    2.212500503    2.212490369    1.627102706
    0.720720721    2.211772871    2.211762743    1.626930885
    0.740740741    2.211026737    2.211016614    1.626754540
    0.760760761    2.210262200    2.210252084    1.626573683
    0.780780781    2.209479364    2.209469254    1.626388327
    0.800800801    2.208678334    2.208668229    1.626198483
    0.820820821    2.207859215    2.207849117    1.626004164
    0.840840841    2.207022117    2.207012025    1.625805384
    0.860860861    2.206167151    2.206157065    1.625602155
    0.880880881    2.205294428    2.205284350    1.625394492
    0.900900901    2.204404065    2.204393993    1.625182407
    0.920920921    2.203496176    2.203486111    1.624965914
    0.940940941    2.202570881    2.202560823    1.624745028
    0.960960961    2.201628300    2.201618249    1.624519764
    0.980980981    2.200668554    2.200658510    1.624290135
    1.001001001    2.199691767    2.199681731    1.624056157
    1.021021021    2.198698065    2.198688036    1.623817845
    1.041041041    2.197687574    2.197677552    1.623575215
    1.061061061    2.196660422    2.196650408    1.623328281
    1.081081081    2.195616739    2.195606733    1.623077060
    1.101101101    2.194556657    2.194546660    1.622821567
    1.121121121    2.193480310    2.193470320    1.622561820
    1.141141141    2.192387830    2.192377848    1.622297834
    1.161161161    2.191279354    2.191269381    1.622029626
    1.181181181    2.190155018    2.190145054    1.621757213
    1.201201201    2.189014962    2.189005006    1.621480612
    1.221221221    2.187859324    2.187849376    1.621199840
    1.241241241    2.186688245    2.186678306    1.620914915
    1.261261261    2.185501867    2.185491937    1.620625855
    1.281281281    2.184300332    2.184290411    1.620332676
    1.301301301    2.183083786    2.183073874    1.620035397
    1.321321321    2.181852372    2.181842469    1.619734037
    1.341341341    2.180606236    2.180596343    1.619428613
    1.361361361    2.179345527    2.179335643    1.619119145
    1.381381381    2.178070390    2.178060516    1.618805650
    1.401401401    2.176780976    2.176771111    1.618488148
    1.421421421    2.175477432    2.175467577    1.618166657
    1.441441441    2.174159910    2.174150065    1.617841197
    1.461461461    2.172828560    2.172818725    1.617511787
    1.481481481    2.171483534    2.171473708    1.617178447
    1.501501502    2.170124984    2.170115168    1.616841195
    1.521521522    2.168753062    2.168743256    1.616500052
    1.541541542    2.167367922    2.167358127    1.616155038
    1.561561562    2.165969717    2.165959932    1.615806172
    1.581581582    2.164558603    2.164548828    1.615453475
    1.601601602    2.163134732    2.163124969    1.615096966
    1.621621622    2.161698262    2.161688508    1.614736667
    1.641641642    2.160249346    2.160239603    1.614372597
    1.661661662    2.158788140    2.158778408    1.614004777
    1.681681682    2.157314801    2.157305080    1.613633229
    1.701701702    2.155829484    2.155819774    1.613257971
    1.721721722    2.154332347    2.154322647    1.612879026
    1.741741742    2.152823544    2.152813856    1.612496415
    1.761761762    2.151303234    2.151293556    1.612110158
    1.781781782    2.149771571    2.149761905    1.611720277
    1.801801802    2.148228715    2.148219060    1.611326792
    1.821821822    2.146674820    2.146665176    1.610929726
    1.841841842    2.145110043    2.145100411    1.610529099
    1.861861862    2.143534542    2.143524922    1.610124933
    1.881881882    2.141948473    2.141938864    1.609717250
    1.901901902    2.140351991    2.140342394    1.609306071
    1.921921922    2.138745254    2.138735668    1.608891418
    1.941941942    2.137128416    2.137118842    1.608473313
    1.961961962    2.135501635    2.135492073    1.608051777
    1.981981982    2.133865065    2.133855514    1.607626832
    2.002002002    2.132218861    2.132209323    1.607198501
    2.022022022    2.130563179    2.130553652    1.606766804
    2.042042042    2.128898172    2.128888658    1.606331765
    2.062062062    2.127223996    2.127214493    1.605893405
    2.082082082    2.125540803    2.125531312    1.605451746
    2.102102102    2.123848747    2.123839268    1.605006811
    2.122122122    2.122147980    2.122138514    1.604558622
    2.142142142    2.120438655    2.120429201    1.604107200
    2.162162162    2.118720924    2.118711482    1.603652568
    2.182182182    2.116994937    2.116985508    1.603194748
    2.202202202    2.115260846    2.115251429    1.602733763
    2.222222222    2.113518800    2.113509395    1.602269635
    2.242242242    2.111768948    2.111759556    1.601802386
    2.262262262    2.110011441    2.110002061    1.601332039
    2.282282282    2.108246424    2.108237057    1.600858615
    2.302302302    2.106474047    2.106464692    1.600382137
    2.322322322    2.104694455    2.104685113    1.599902628
    2.342342342    2.102907794    2.102898465    1.599420110
    2.362362362    2.101114210    2.101104894    1.598934606
    2.382382382    2.099313847    2.099304543    1.598446136
    2.402402402    2.097506848    2.097497558    1.597954725
    2.422422422    2.095693357    2.095684079    1.597460395
    2.442442442    2.093873515    2.093864250    1.596963167
    2.462462462    2.092047464    2.092038211    1.596463064
    2.482482482    2.090215342    2.090206103    1.595960108
    2.502502503    2.088377291    2.088368064    1.595454323
    2.522522523    2.086533448    2.086524234    1.594945729
    2.542542543    2.084683951    2.084674750    1.594434350
    2.562562563    2.082828936    2.082819749    1.593920207
    2.582582583    2.080968540    2.080959365    1.593403323
    2.602602603    2.079102896    2.079093734    1.592883720
    2.622622623    2.077232138    2.077222990    1.592361421
    2.642642643    2.075356400    2.075347265    1.591836447
    2.662662663    2.073475813    2.073466691    1.591308820
    2.682682683    2.071590508    2.071581398    1.590778564
    2.702702703    2.069700614    2.069691517    1.590245699
    2.722722723    2.067806260    2.067797177    1.589710248
    2.742742743    2.065907574    2.065898504    1.589172233
    2.762762763    2.064004683    2.063995626    1.588631675
    2.782782783    2.062097711    2.062088667    1.588088598
    2.802802803    2.060186784    2.060177753    1.587543022
    2.822822823    2.058272025    2.058263007    1.586994969
    2.842842843    2.056353556    2.056344552    1.586444462
    2.862862863    2.054431498    2.054422507    1.585891522
    2.882882883    2.052505973    2.052496995    1.585336171
    2.902902903    2.050577098    2.050568133    1.584778430
    2.922922923    2.048644991    2.048636040    1.584218321
    2.942942943    2.046709771    2.046700832    1.583655866
    2.962962963    2.044771551    2.044762626    1.583091086
    2.982982983    2.042830448    2.042821536    1.582524003
    3.003003003    2.040886573    2.040877675    1.581954637
    3.023023023    2.038940041    2.038931156    1.581383011
    3.043043043    2.036990962    2.036982090    1.580809146
    3.063063063    2.035039446    2.035030587    1.580233062
    3.083083083    2.033085601    2.033076756    1.579654782
    3.103103103    2.031129537    2.031120705    1.579074326
    3.123123123    2.029171360    2.029162541    1.578491714
    3.143143143    2.027211174    2.027202369    1.577906970
    3.163163163    2.025249086    2.025240293    1.577320112
    3.183183183    2.023285197    2.023276418    1.576731162
    3.203203203    2.021319610    2.021310844    1.576140141
    3.223223223    2.019352426    2.019343673    1.575547069
    3.243243243    2.017383745    2.017375005    1.574951967
    3.263263263    2.015413666    2.015404939    1.574354857
    3.283283283    2.013442285    2.013433572    1.573755757
    3.303303303    2.011469701    2.011461001    1.573154689
    3.323323323    2.009496007    2.009487320    1.572551673
    3.343343343    2.007521298    2.007512624    1.571946730
    3.363363363    2.005545667    2.005537007    1.571339879
    3.383383383    2.003569206    2.003560559    1.570731141
    3.403403403    2.001592006    2.001583372    1.570120536
    3.423423423    1.999614156    1.999605535    1.569508084
    3.443443443    1.997635745    1.997627137    1.568893805
    3.463463463    1.995656861    1.995648266    1.568277718
    3.483483483    1.993677589    1.993669007    1.567659844
    3.503503504    1.991698014    1.991689446    1.567040202
    3.523523524    1.989718222    1.989709666    1.566418812
    3.543543544    1.987738294    1.987729752    1.565795693
    3.563563564    1.985758313    1.985749784    1.565170865
    3.583583584    1.983778360    1.983769843    1.564544348
    3.603603604    1.981798513    1.981790010    1.563916160
    3.623623624    1.979818853    1.979810362    1.563286321
    3.643643644    1.977839456    1.977830978    1.562654850
    3.663663664    1.975860398    1.975851934    1.562021766
    3.683683684    1.973881756    1.973873304    1.561387088
    3.703703704    1.971903603    1.971895164    1.560750835
    3.723723724    1.969926013    1.969917587    1.560113026
    3.743743744    1.967949058    1.967940645    1.559473679
    3.763763764    1.965972809    1.965964409    1.558832814
    3.783783784    1.963997337    1.963988949    1.558190448
    3.803803804    1.962022710    1.962014335    1.557546601
    3.823823824    1.960048996    1.960040635    1.556901291
    3.843843844    1.958076264    1.958067915    1.556254536
    3.863863864    1.956104578    1.956096242    1.555606354
    3.883883884    1.954134003    1.954125680    1.554956764
    3.903903904    1.952164605    1.952156295    1.554305783
    3.923923924    1.950196446    1.950188148    1.553653430
    3.943943944    1.948229588    1.948221302    1.552999723
    3.963963964    1.946264092    1.946255819    1.552344679
    3.983983984    1.944300018    1.944291758    1.551688316
    4.004004004    1.942337426    1.942329179    1.551030653
    4.024024024    1.940376374    1.940368139    1.550371705
    4.044044044    1.938416919    1.938408697    1.549711491
    4.064064064    1.936459118    1.936450908    1.549050029
    4.084084084    1.934503026    1.934494828    1.548387335
    4.104104104    1.932548697    1.932540512    1.547723428
    4.124124124    1.930596185    1.930588013    1.547058323
    4.144144144    1.928645544    1.928637384    1.546392038
    4.164164164    1.926696824    1.926688676    1.545724591
    4.184184184    1.924750076    1.924741941    1.545055997
    4.204204204    1.922805352    1.922797229    1.544386274
    4.224224224    1.920862699    1.920854589    1.543715439
    4.244244244    1.918922167    1.918914068    1.543043507
    4.264264264    1.916983802    1.916975716    1.542370497
    4.284284284    1.915047651    1.915039577    1.541696424
    4.304304304    1.913113761    1.913105699    1.541021304
    4.324324324    1.911182175    1.911174126    1.540345154
    4.344344344    1.909252939    1.909244902    1.539667990
    4.364364364    1.907326095    1.907318070    1.538989828
    4.384384384    1.905401686    1.905393673    1.538310684
    4.404404404    1.903479753    1.903471753    1.537630575
    4.424424424    1.901560339    1.901552350    1.536949515
    4.444444444    1.899643482    1.899635505    1.536267522
    4.464464464    1.897729221    1.897721257    1.535584610
    4.484484484    1.895817597    1.895809644    1.534900795
    4.504504505    1.893908646    1.893900705    1.534216092
    4.524524525    1.892002406    1.891994477    1.533530518
    4.544544545    1.890098913    1.890090995    1.532844087
    4.564564565    1.888198202    1.888190296    1.532156814
    4.584584585    1.886300308    1.886292415    1.531468716
    4.604604605    1.884405267    1.884397385    1.530779806
    4.624624625    1.882513110    1.882505240    1.530090100
    4.644644645    1.880623871    1.880616013    1.529399613
    4.664664665    1.878737583    1.878729736    1.528708360
    4.684684685    1.876854276    1.876846441    1.528016356
    4.704704705    1.874973980    1.874966157    1.527323614
    4.724724725    1.873096727    1.873088916    1.526630150
    4.744744745    1.871222546    1.871214746    1.525935979
    4.764764765    1.869351465    1.869343676    1.525241114
    4.784784785    1.867483512    1.867475735    1.524545570
    4.804804805    1.865618716    1.865610950    1.523849361
    4.824824825    1.863757102    1.863749348    1.523152502
    4.844844845    1.861898697    1.861890954    1.522455006
    4.864864865    1.860043527    1.860035795    1.521756887
    4.884884885    1.858191616    1.858183896    1.521058160
    4.904904905    1.856342989    1.856335281    1.520358839
    4.924924925    1.854497671    1.854489974    1.519658936
    4.944944945    1.852655683    1.852647997    1.518958466
    4.964964965    1.850817049    1.850809375    1.518257442
    4.984984985    1.848981792    1.848974128    1.517555878
    5.005005005    1.847149931    1.847142279    1.516853787
    5.025025025    1.845321490    1.845313849    1.516151182
    5.045045045    1.843496487    1.843488857    1.515448077
    5.065065065    1.841674943    1.841667324    1.514744485
    5.085085085    1.839856877    1.839849269    1.514040420
    5.105105105    1.838042309    1.838034712    1.513335893
    5.125125125    1.836231256    1.836223670    1.512630918
    5.145145145    1.834423736    1.834416161    1.511925508
    5.165165165    1.832619767    1.832612203    1.511219676
    5.185185185    1.830819365    1.830811813    1.510513434
    5.205205205    1.829022548    1.829015006    1.509806794
    5.225225225    1.827229330    1.827221799    1.509099771
    5.245245245    1.825439728    1.825432208    1.508392375
    5.265265265    1.823653756    1.823646247    1.507684619
    5.285285285    1.821871429    1.821863930    1.506976517
    5.305305305    1.820092760    1.820085272    1.506268078
    5.325325325    1.818317763    1.818310286    1.505559317
    5.345345345    1.816546453    1.816538986    1.504850245
    5.365365365    1.814778840    1.814771384    1.504140873
    5.385385385    1.813014938    1.813007493    1.503431215
    5.405405405    1.811254758    1.811247324    1.502721281
    5.425425425    1.809498312    1.809490888    1.502011084
    5.445445445    1.807745611    1.807738198    1.501300635
    5.465465465    1.805996666    1.805989263    1.500589945
    5.485485485    1.804251487    1.804244094    1.499879027
    5.505505506    1.802510083    1.802502701    1.499167891
    5.525525526    1.800772464    1.800765093    1.498456550
    5.545545546    1.799038640    1.799031279    1.497745013
    5.565565566    1.797308619    1.797301268    1.497033294
    5.585585586    1.795582409    1.795575068    1.496321402
    5.605605606    1.793860018    1.793852688    1.495609348
    5.625625626    1.792141455    1.792134135    1.494897145
    5.645645646    1.790426726    1.790419416    1.494184802
    5.665665666    1.788715838    1.788708538    1.493472330
    5.685685686    1.787008798    1.787001509    1.492759741
    5.705705706    1.785305613    1.785298333    1.492047044
    5.725725726    1.783606287    1.783599018    1.491334251
    5.745745746    1.781910828    1.781903569    1.490621373
    5.765765766    1.780219239    1.780211991    1.489908418
    5.785785786    1.778531527    1.778524289    1.489195399
    5.805805806    1.776847696    1.776840468    1.488482325
    5.825825826    1.775167750    1.775160532    1.487769206
    5.845845846    1.773491694    1.773484485    1.487056053
    5.865865866    1.771819531    1.771812332    1.486342876
    5.885885886    1.770151264    1.770144076    1.485629685
    5.905905906    1.768486898    1.768479719    1.484916490
    5.925925926    1.766826435    1.766819266    1.484203300
    5.945945946    1.765169877    1.765162718    1.483490126
    5.965965966    1.763517228    1.763510079    1.482776977
    5.985985986    1.761868489    1.761861349    1.482063863
    6.006006006    1.760223662    1.760216532    1.481350793
    6.026026026    1.758582750    1.758575629    1.480637778
    6.046046046    1.756945752    1.756938642    1.479924826
    6.066066066    1.755312671    1.755305570    1.479211947
    6.086086086    1.753683508    1.753676417    1.478499150
    6.106106106    1.752058263    1.752051181    1.477786445
    6.126126126    1.750436936    1.750429864    1.477073841
    6.146146146    1.748819528    1.748812466    1.476361347
    6.166166166    1.747206040    1.747198987    1.475648971
    6.186186186    1.745596469    1.745589426    1.474936724
    6.206206206    1.743990817    1.743983783    1.474224613
    6.226226226    1.742389083    1.742382059    1.473512648
    6.246246246    1.740791266    1.740784250    1.472800838
    6.266266266    1.739197364    1.739190358    1.472089191
    6.286286286    1.737607377    1.737600380    1.471377715
    6.306306306    1.736021302    1.736014315    1.470666421
    6.326326326    1.734439140    1.734432162    1.469955315
    6.346346346    1.732860887    1.732853918    1.469244406
    6.366366366    1.731286541    1.731279582    1.468533704
    6.386386386    1.729716101    1.729709151    1.467823216
    6.406406406    1.728149564    1.728142623    1.467112950
    6.426426426    1.726586928    1.726579996    1.466402915
    6.446446446    1.725028189    1.725021267    1.465693118
    6.466466466    1.723473345    1.723466432    1.464983569
    6.486486486    1.721922393    1.721915490    1.464274274
    6.506506507    1.720375330    1.720368436    1.463565242
    6.526526527    1.718832153    1.718825267    1.462856481
