#  E (eV)   dos(E)     Int dos(E) EFermi =   -1.133 eV
 -10.000  0.4647E+00  0.4647E-02
  -9.990  0.4640E+00  0.9287E-02
  -9.980  0.4633E+00  0.1392E-01
  -9.970  0.4625E+00  0.1854E-01
  -9.960  0.4618E+00  0.2316E-01
  -9.950  0.4614E+00  0.2778E-01
  -9.940  0.4612E+00  0.3239E-01
  -9.930  0.4615E+00  0.3700E-01
  -9.920  0.4622E+00  0.4163E-01
  -9.910  0.4634E+00  0.4626E-01
  -9.900  0.4651E+00  0.5091E-01
  -9.890  0.4671E+00  0.5558E-01
  -9.880  0.4694E+00  0.6028E-01
  -9.870  0.4718E+00  0.6499E-01
  -9.860  0.4742E+00  0.6974E-01
  -9.850  0.4765E+00  0.7450E-01
  -9.840  0.4784E+00  0.7928E-01
  -9.830  0.4800E+00  0.8408E-01
  -9.820  0.4811E+00  0.8890E-01
  -9.810  0.4816E+00  0.9371E-01
  -9.800  0.4816E+00  0.9853E-01
  -9.790  0.4810E+00  0.1033E+00
  -9.780  0.4799E+00  0.1081E+00
  -9.770  0.4784E+00  0.1129E+00
  -9.760  0.4767E+00  0.1177E+00
  -9.750  0.4749E+00  0.1224E+00
  -9.740  0.4731E+00  0.1272E+00
  -9.730  0.4716E+00  0.1319E+00
  -9.720  0.4704E+00  0.1366E+00
  -9.710  0.4696E+00  0.1413E+00
  -9.700  0.4694E+00  0.1460E+00
  -9.690  0.4698E+00  0.1507E+00
  -9.680  0.4707E+00  0.1554E+00
  -9.670  0.4723E+00  0.1601E+00
  -9.660  0.4743E+00  0.1648E+00
  -9.650  0.4768E+00  0.1696E+00
  -9.640  0.4796E+00  0.1744E+00
  -9.630  0.4826E+00  0.1792E+00
  -9.620  0.4857E+00  0.1841E+00
  -9.610  0.4886E+00  0.1890E+00
  -9.600  0.4914E+00  0.1939E+00
  -9.590  0.4938E+00  0.1988E+00
  -9.580  0.4959E+00  0.2038E+00
  -9.570  0.4974E+00  0.2088E+00
  -9.560  0.4985E+00  0.2138E+00
  -9.550  0.4991E+00  0.2187E+00
  -9.540  0.4992E+00  0.2237E+00
  -9.530  0.4989E+00  0.2287E+00
  -9.520  0.4981E+00  0.2337E+00
  -9.510  0.4971E+00  0.2387E+00
  -9.500  0.4957E+00  0.2436E+00
  -9.490  0.4942E+00  0.2486E+00
  -9.480  0.4927E+00  0.2535E+00
  -9.470  0.4911E+00  0.2584E+00
  -9.460  0.4896E+00  0.2633E+00
  -9.450  0.4884E+00  0.2682E+00
  -9.440  0.4874E+00  0.2731E+00
  -9.430  0.4867E+00  0.2779E+00
  -9.420  0.4864E+00  0.2828E+00
  -9.410  0.4865E+00  0.2877E+00
  -9.400  0.4871E+00  0.2925E+00
  -9.390  0.4883E+00  0.2974E+00
  -9.380  0.4899E+00  0.3023E+00
  -9.370  0.4920E+00  0.3072E+00
  -9.360  0.4946E+00  0.3122E+00
  -9.350  0.4976E+00  0.3172E+00
  -9.340  0.5010E+00  0.3222E+00
  -9.330  0.5046E+00  0.3272E+00
  -9.320  0.5083E+00  0.3323E+00
  -9.310  0.5120E+00  0.3374E+00
  -9.300  0.5156E+00  0.3426E+00
  -9.290  0.5189E+00  0.3478E+00
  -9.280  0.5217E+00  0.3530E+00
  -9.270  0.5240E+00  0.3582E+00
  -9.260  0.5256E+00  0.3635E+00
  -9.250  0.5265E+00  0.3687E+00
  -9.240  0.5266E+00  0.3740E+00
  -9.230  0.5259E+00  0.3793E+00
  -9.220  0.5245E+00  0.3845E+00
  -9.210  0.5224E+00  0.3897E+00
  -9.200  0.5197E+00  0.3949E+00
  -9.190  0.5167E+00  0.4001E+00
  -9.180  0.5136E+00  0.4052E+00
  -9.170  0.5105E+00  0.4103E+00
  -9.160  0.5076E+00  0.4154E+00
  -9.150  0.5053E+00  0.4205E+00
  -9.140  0.5037E+00  0.4255E+00
  -9.130  0.5029E+00  0.4305E+00
  -9.120  0.5031E+00  0.4356E+00
  -9.110  0.5045E+00  0.4406E+00
  -9.100  0.5070E+00  0.4457E+00
  -9.090  0.5105E+00  0.4508E+00
  -9.080  0.5151E+00  0.4559E+00
  -9.070  0.5206E+00  0.4611E+00
  -9.060  0.5268E+00  0.4664E+00
  -9.050  0.5336E+00  0.4717E+00
  -9.040  0.5406E+00  0.4772E+00
  -9.030  0.5477E+00  0.4826E+00
  -9.020  0.5547E+00  0.4882E+00
  -9.010  0.5613E+00  0.4938E+00
  -9.000  0.5675E+00  0.4995E+00
  -8.990  0.5732E+00  0.5052E+00
  -8.980  0.5783E+00  0.5110E+00
  -8.970  0.5829E+00  0.5168E+00
  -8.960  0.5871E+00  0.5227E+00
  -8.950  0.5910E+00  0.5286E+00
  -8.940  0.5949E+00  0.5345E+00
  -8.930  0.5989E+00  0.5405E+00
  -8.920  0.6034E+00  0.5466E+00
  -8.910  0.6086E+00  0.5526E+00
  -8.900  0.6147E+00  0.5588E+00
  -8.890  0.6218E+00  0.5650E+00
  -8.880  0.6303E+00  0.5713E+00
  -8.870  0.6400E+00  0.5777E+00
  -8.860  0.6510E+00  0.5842E+00
  -8.850  0.6634E+00  0.5909E+00
  -8.840  0.6768E+00  0.5976E+00
  -8.830  0.6911E+00  0.6045E+00
  -8.820  0.7061E+00  0.6116E+00
  -8.810  0.7215E+00  0.6188E+00
  -8.800  0.7369E+00  0.6262E+00
  -8.790  0.7521E+00  0.6337E+00
  -8.780  0.7668E+00  0.6414E+00
  -8.770  0.7807E+00  0.6492E+00
  -8.760  0.7936E+00  0.6571E+00
  -8.750  0.8052E+00  0.6652E+00
  -8.740  0.8156E+00  0.6733E+00
  -8.730  0.8247E+00  0.6816E+00
  -8.720  0.8324E+00  0.6899E+00
  -8.710  0.8389E+00  0.6983E+00
  -8.700  0.8443E+00  0.7067E+00
  -8.690  0.8487E+00  0.7152E+00
  -8.680  0.8523E+00  0.7237E+00
  -8.670  0.8553E+00  0.7323E+00
  -8.660  0.8579E+00  0.7409E+00
  -8.650  0.8602E+00  0.7495E+00
  -8.640  0.8624E+00  0.7581E+00
  -8.630  0.8645E+00  0.7667E+00
  -8.620  0.8667E+00  0.7754E+00
  -8.610  0.8689E+00  0.7841E+00
  -8.600  0.8712E+00  0.7928E+00
  -8.590  0.8736E+00  0.8015E+00
  -8.580  0.8759E+00  0.8103E+00
  -8.570  0.8780E+00  0.8191E+00
  -8.560  0.8801E+00  0.8279E+00
  -8.550  0.8819E+00  0.8367E+00
  -8.540  0.8834E+00  0.8455E+00
  -8.530  0.8847E+00  0.8544E+00
  -8.520  0.8857E+00  0.8632E+00
  -8.510  0.8865E+00  0.8721E+00
  -8.500  0.8872E+00  0.8810E+00
  -8.490  0.8880E+00  0.8899E+00
  -8.480  0.8888E+00  0.8987E+00
  -8.470  0.8900E+00  0.9076E+00
  -8.460  0.8916E+00  0.9166E+00
  -8.450  0.8937E+00  0.9255E+00
  -8.440  0.8964E+00  0.9345E+00
  -8.430  0.8998E+00  0.9435E+00
  -8.420  0.9039E+00  0.9525E+00
  -8.410  0.9086E+00  0.9616E+00
  -8.400  0.9139E+00  0.9707E+00
  -8.390  0.9196E+00  0.9799E+00
  -8.380  0.9256E+00  0.9892E+00
  -8.370  0.9316E+00  0.9985E+00
  -8.360  0.9375E+00  0.1008E+01
  -8.350  0.9430E+00  0.1017E+01
  -8.340  0.9481E+00  0.1027E+01
  -8.330  0.9525E+00  0.1036E+01
  -8.320  0.9561E+00  0.1046E+01
  -8.310  0.9588E+00  0.1055E+01
  -8.300  0.9608E+00  0.1065E+01
  -8.290  0.9620E+00  0.1075E+01
  -8.280  0.9625E+00  0.1084E+01
  -8.270  0.9626E+00  0.1094E+01
  -8.260  0.9623E+00  0.1104E+01
  -8.250  0.9620E+00  0.1113E+01
  -8.240  0.9619E+00  0.1123E+01
  -8.230  0.9621E+00  0.1132E+01
  -8.220  0.9629E+00  0.1142E+01
  -8.210  0.9645E+00  0.1152E+01
  -8.200  0.9669E+00  0.1161E+01
  -8.190  0.9703E+00  0.1171E+01
  -8.180  0.9746E+00  0.1181E+01
  -8.170  0.9800E+00  0.1191E+01
  -8.160  0.9861E+00  0.1200E+01
  -8.150  0.9931E+00  0.1210E+01
  -8.140  0.1001E+01  0.1220E+01
  -8.130  0.1009E+01  0.1230E+01
  -8.120  0.1017E+01  0.1241E+01
  -8.110  0.1025E+01  0.1251E+01
  -8.100  0.1034E+01  0.1261E+01
  -8.090  0.1042E+01  0.1272E+01
  -8.080  0.1051E+01  0.1282E+01
  -8.070  0.1059E+01  0.1293E+01
  -8.060  0.1067E+01  0.1303E+01
  -8.050  0.1075E+01  0.1314E+01
  -8.040  0.1082E+01  0.1325E+01
  -8.030  0.1090E+01  0.1336E+01
  -8.020  0.1098E+01  0.1347E+01
  -8.010  0.1106E+01  0.1358E+01
  -8.000  0.1115E+01  0.1369E+01
  -7.990  0.1124E+01  0.1380E+01
  -7.980  0.1134E+01  0.1392E+01
  -7.970  0.1144E+01  0.1403E+01
  -7.960  0.1155E+01  0.1415E+01
  -7.950  0.1166E+01  0.1426E+01
  -7.940  0.1178E+01  0.1438E+01
  -7.930  0.1190E+01  0.1450E+01
  -7.920  0.1202E+01  0.1462E+01
  -7.910  0.1215E+01  0.1474E+01
  -7.900  0.1227E+01  0.1486E+01
  -7.890  0.1240E+01  0.1499E+01
  -7.880  0.1252E+01  0.1511E+01
  -7.870  0.1263E+01  0.1524E+01
  -7.860  0.1274E+01  0.1537E+01
  -7.850  0.1284E+01  0.1550E+01
  -7.840  0.1293E+01  0.1563E+01
  -7.830  0.1301E+01  0.1576E+01
  -7.820  0.1307E+01  0.1589E+01
  -7.810  0.1312E+01  0.1602E+01
  -7.800  0.1316E+01  0.1615E+01
  -7.790  0.1319E+01  0.1628E+01
  -7.780  0.1320E+01  0.1641E+01
  -7.770  0.1319E+01  0.1654E+01
  -7.760  0.1317E+01  0.1668E+01
  -7.750  0.1313E+01  0.1681E+01
  -7.740  0.1308E+01  0.1694E+01
  -7.730  0.1302E+01  0.1707E+01
  -7.720  0.1294E+01  0.1720E+01
  -7.710  0.1285E+01  0.1733E+01
  -7.700  0.1275E+01  0.1745E+01
  -7.690  0.1264E+01  0.1758E+01
  -7.680  0.1252E+01  0.1771E+01
  -7.670  0.1239E+01  0.1783E+01
  -7.660  0.1225E+01  0.1795E+01
  -7.650  0.1211E+01  0.1807E+01
  -7.640  0.1196E+01  0.1819E+01
  -7.630  0.1181E+01  0.1831E+01
  -7.620  0.1166E+01  0.1843E+01
  -7.610  0.1151E+01  0.1854E+01
  -7.600  0.1136E+01  0.1866E+01
  -7.590  0.1121E+01  0.1877E+01
  -7.580  0.1107E+01  0.1888E+01
  -7.570  0.1093E+01  0.1899E+01
  -7.560  0.1080E+01  0.1910E+01
  -7.550  0.1068E+01  0.1920E+01
  -7.540  0.1056E+01  0.1931E+01
  -7.530  0.1046E+01  0.1941E+01
  -7.520  0.1036E+01  0.1952E+01
  -7.510  0.1027E+01  0.1962E+01
  -7.500  0.1019E+01  0.1972E+01
  -7.490  0.1013E+01  0.1982E+01
  -7.480  0.1007E+01  0.1992E+01
  -7.470  0.1002E+01  0.2002E+01
  -7.460  0.9977E+00  0.2012E+01
  -7.450  0.9942E+00  0.2022E+01
  -7.440  0.9913E+00  0.2032E+01
  -7.430  0.9888E+00  0.2042E+01
  -7.420  0.9865E+00  0.2052E+01
  -7.410  0.9843E+00  0.2062E+01
  -7.400  0.9820E+00  0.2072E+01
  -7.390  0.9794E+00  0.2081E+01
  -7.380  0.9765E+00  0.2091E+01
  -7.370  0.9731E+00  0.2101E+01
  -7.360  0.9691E+00  0.2111E+01
  -7.350  0.9646E+00  0.2120E+01
  -7.340  0.9594E+00  0.2130E+01
  -7.330  0.9538E+00  0.2139E+01
  -7.320  0.9476E+00  0.2149E+01
  -7.310  0.9411E+00  0.2158E+01
  -7.300  0.9344E+00  0.2168E+01
  -7.290  0.9275E+00  0.2177E+01
  -7.280  0.9208E+00  0.2186E+01
  -7.270  0.9143E+00  0.2195E+01
  -7.260  0.9082E+00  0.2204E+01
  -7.250  0.9025E+00  0.2213E+01
  -7.240  0.8975E+00  0.2222E+01
  -7.230  0.8930E+00  0.2231E+01
  -7.220  0.8893E+00  0.2240E+01
  -7.210  0.8862E+00  0.2249E+01
  -7.200  0.8837E+00  0.2258E+01
  -7.190  0.8817E+00  0.2267E+01
  -7.180  0.8802E+00  0.2275E+01
  -7.170  0.8789E+00  0.2284E+01
  -7.160  0.8779E+00  0.2293E+01
  -7.150  0.8769E+00  0.2302E+01
  -7.140  0.8760E+00  0.2311E+01
  -7.130  0.8748E+00  0.2319E+01
  -7.120  0.8735E+00  0.2328E+01
  -7.110  0.8720E+00  0.2337E+01
  -7.100  0.8702E+00  0.2345E+01
  -7.090  0.8682E+00  0.2354E+01
  -7.080  0.8660E+00  0.2363E+01
  -7.070  0.8637E+00  0.2371E+01
  -7.060  0.8612E+00  0.2380E+01
  -7.050  0.8587E+00  0.2389E+01
  -7.040  0.8562E+00  0.2397E+01
  -7.030  0.8538E+00  0.2406E+01
  -7.020  0.8515E+00  0.2414E+01
  -7.010  0.8492E+00  0.2423E+01
  -7.000  0.8470E+00  0.2431E+01
  -6.990  0.8449E+00  0.2440E+01
  -6.980  0.8427E+00  0.2448E+01
  -6.970  0.8404E+00  0.2457E+01
  -6.960  0.8381E+00  0.2465E+01
  -6.950  0.8355E+00  0.2473E+01
  -6.940  0.8328E+00  0.2482E+01
  -6.930  0.8298E+00  0.2490E+01
  -6.920  0.8265E+00  0.2498E+01
  -6.910  0.8230E+00  0.2506E+01
  -6.900  0.8194E+00  0.2515E+01
  -6.890  0.8156E+00  0.2523E+01
  -6.880  0.8118E+00  0.2531E+01
  -6.870  0.8081E+00  0.2539E+01
  -6.860  0.8046E+00  0.2547E+01
  -6.850  0.8014E+00  0.2555E+01
  -6.840  0.7986E+00  0.2563E+01
  -6.830  0.7964E+00  0.2571E+01
  -6.820  0.7948E+00  0.2579E+01
  -6.810  0.7939E+00  0.2587E+01
  -6.800  0.7936E+00  0.2595E+01
  -6.790  0.7940E+00  0.2603E+01
  -6.780  0.7948E+00  0.2611E+01
  -6.770  0.7962E+00  0.2619E+01
  -6.760  0.7978E+00  0.2627E+01
  -6.750  0.7996E+00  0.2635E+01
  -6.740  0.8012E+00  0.2643E+01
  -6.730  0.8027E+00  0.2651E+01
  -6.720  0.8036E+00  0.2659E+01
  -6.710  0.8039E+00  0.2667E+01
  -6.700  0.8035E+00  0.2675E+01
  -6.690  0.8021E+00  0.2683E+01
  -6.680  0.7998E+00  0.2691E+01
  -6.670  0.7966E+00  0.2699E+01
  -6.660  0.7925E+00  0.2707E+01
  -6.650  0.7877E+00  0.2714E+01
  -6.640  0.7824E+00  0.2722E+01
  -6.630  0.7767E+00  0.2730E+01
  -6.620  0.7710E+00  0.2738E+01
  -6.610  0.7655E+00  0.2745E+01
  -6.600  0.7605E+00  0.2753E+01
  -6.590  0.7562E+00  0.2761E+01
  -6.580  0.7529E+00  0.2768E+01
  -6.570  0.7506E+00  0.2776E+01
  -6.560  0.7494E+00  0.2783E+01
  -6.550  0.7494E+00  0.2791E+01
  -6.540  0.7505E+00  0.2798E+01
  -6.530  0.7525E+00  0.2806E+01
  -6.520  0.7551E+00  0.2813E+01
  -6.510  0.7582E+00  0.2821E+01
  -6.500  0.7614E+00  0.2828E+01
  -6.490  0.7644E+00  0.2836E+01
  -6.480  0.7671E+00  0.2844E+01
  -6.470  0.7691E+00  0.2851E+01
  -6.460  0.7702E+00  0.2859E+01
  -6.450  0.7703E+00  0.2867E+01
  -6.440  0.7694E+00  0.2875E+01
  -6.430  0.7675E+00  0.2882E+01
  -6.420  0.7647E+00  0.2890E+01
  -6.410  0.7611E+00  0.2897E+01
  -6.400  0.7570E+00  0.2905E+01
  -6.390  0.7526E+00  0.2913E+01
  -6.380  0.7481E+00  0.2920E+01
  -6.370  0.7438E+00  0.2927E+01
  -6.360  0.7399E+00  0.2935E+01
  -6.350  0.7365E+00  0.2942E+01
  -6.340  0.7339E+00  0.2950E+01
  -6.330  0.7319E+00  0.2957E+01
  -6.320  0.7307E+00  0.2964E+01
  -6.310  0.7302E+00  0.2972E+01
  -6.300  0.7304E+00  0.2979E+01
  -6.290  0.7310E+00  0.2986E+01
  -6.280  0.7319E+00  0.2993E+01
  -6.270  0.7331E+00  0.3001E+01
  -6.260  0.7343E+00  0.3008E+01
  -6.250  0.7355E+00  0.3015E+01
  -6.240  0.7364E+00  0.3023E+01
  -6.230  0.7370E+00  0.3030E+01
  -6.220  0.7374E+00  0.3038E+01
  -6.210  0.7373E+00  0.3045E+01
  -6.200  0.7369E+00  0.3052E+01
  -6.190  0.7361E+00  0.3060E+01
  -6.180  0.7351E+00  0.3067E+01
  -6.170  0.7338E+00  0.3074E+01
  -6.160  0.7323E+00  0.3082E+01
  -6.150  0.7307E+00  0.3089E+01
  -6.140  0.7290E+00  0.3096E+01
  -6.130  0.7273E+00  0.3104E+01
  -6.120  0.7256E+00  0.3111E+01
  -6.110  0.7239E+00  0.3118E+01
  -6.100  0.7223E+00  0.3125E+01
  -6.090  0.7209E+00  0.3132E+01
  -6.080  0.7196E+00  0.3140E+01
  -6.070  0.7185E+00  0.3147E+01
  -6.060  0.7175E+00  0.3154E+01
  -6.050  0.7169E+00  0.3161E+01
  -6.040  0.7165E+00  0.3168E+01
  -6.030  0.7163E+00  0.3176E+01
  -6.020  0.7164E+00  0.3183E+01
  -6.010  0.7167E+00  0.3190E+01
  -6.000  0.7172E+00  0.3197E+01
  -5.990  0.7178E+00  0.3204E+01
  -5.980  0.7184E+00  0.3211E+01
  -5.970  0.7190E+00  0.3219E+01
  -5.960  0.7195E+00  0.3226E+01
  -5.950  0.7198E+00  0.3233E+01
  -5.940  0.7198E+00  0.3240E+01
  -5.930  0.7195E+00  0.3247E+01
  -5.920  0.7188E+00  0.3255E+01
  -5.910  0.7178E+00  0.3262E+01
  -5.900  0.7164E+00  0.3269E+01
  -5.890  0.7148E+00  0.3276E+01
  -5.880  0.7129E+00  0.3283E+01
  -5.870  0.7110E+00  0.3290E+01
  -5.860  0.7091E+00  0.3297E+01
  -5.850  0.7074E+00  0.3304E+01
  -5.840  0.7059E+00  0.3312E+01
  -5.830  0.7047E+00  0.3319E+01
  -5.820  0.7040E+00  0.3326E+01
  -5.810  0.7037E+00  0.3333E+01
  -5.800  0.7040E+00  0.3340E+01
  -5.790  0.7047E+00  0.3347E+01
  -5.780  0.7058E+00  0.3354E+01
  -5.770  0.7072E+00  0.3361E+01
  -5.760  0.7088E+00  0.3368E+01
  -5.750  0.7105E+00  0.3375E+01
  -5.740  0.7121E+00  0.3382E+01
  -5.730  0.7135E+00  0.3389E+01
  -5.720  0.7147E+00  0.3396E+01
  -5.710  0.7154E+00  0.3404E+01
  -5.700  0.7157E+00  0.3411E+01
  -5.690  0.7155E+00  0.3418E+01
  -5.680  0.7148E+00  0.3425E+01
  -5.670  0.7136E+00  0.3432E+01
  -5.660  0.7121E+00  0.3439E+01
  -5.650  0.7102E+00  0.3446E+01
  -5.640  0.7081E+00  0.3454E+01
  -5.630  0.7060E+00  0.3461E+01
  -5.620  0.7039E+00  0.3468E+01
  -5.610  0.7021E+00  0.3475E+01
  -5.600  0.7005E+00  0.3482E+01
  -5.590  0.6994E+00  0.3489E+01
  -5.580  0.6988E+00  0.3496E+01
  -5.570  0.6988E+00  0.3503E+01
  -5.560  0.6993E+00  0.3510E+01
  -5.550  0.7004E+00  0.3517E+01
  -5.540  0.7019E+00  0.3524E+01
  -5.530  0.7039E+00  0.3531E+01
  -5.520  0.7062E+00  0.3538E+01
  -5.510  0.7087E+00  0.3545E+01
  -5.500  0.7113E+00  0.3552E+01
  -5.490  0.7137E+00  0.3559E+01
  -5.480  0.7158E+00  0.3566E+01
  -5.470  0.7176E+00  0.3573E+01
  -5.460  0.7190E+00  0.3581E+01
  -5.450  0.7197E+00  0.3588E+01
  -5.440  0.7199E+00  0.3595E+01
  -5.430  0.7195E+00  0.3602E+01
  -5.420  0.7185E+00  0.3609E+01
  -5.410  0.7171E+00  0.3617E+01
  -5.400  0.7153E+00  0.3624E+01
  -5.390  0.7133E+00  0.3631E+01
  -5.380  0.7112E+00  0.3638E+01
  -5.370  0.7092E+00  0.3645E+01
  -5.360  0.7075E+00  0.3652E+01
  -5.350  0.7061E+00  0.3659E+01
  -5.340  0.7053E+00  0.3666E+01
  -5.330  0.7051E+00  0.3673E+01
  -5.320  0.7056E+00  0.3680E+01
  -5.310  0.7067E+00  0.3687E+01
  -5.300  0.7084E+00  0.3694E+01
  -5.290  0.7106E+00  0.3702E+01
  -5.280  0.7133E+00  0.3709E+01
  -5.270  0.7162E+00  0.3716E+01
  -5.260  0.7191E+00  0.3723E+01
  -5.250  0.7220E+00  0.3730E+01
  -5.240  0.7245E+00  0.3738E+01
  -5.230  0.7266E+00  0.3745E+01
  -5.220  0.7281E+00  0.3752E+01
  -5.210  0.7287E+00  0.3759E+01
  -5.200  0.7285E+00  0.3767E+01
  -5.190  0.7273E+00  0.3774E+01
  -5.180  0.7252E+00  0.3781E+01
  -5.170  0.7220E+00  0.3788E+01
  -5.160  0.7180E+00  0.3796E+01
  -5.150  0.7130E+00  0.3803E+01
  -5.140  0.7073E+00  0.3810E+01
  -5.130  0.7010E+00  0.3817E+01
  -5.120  0.6942E+00  0.3824E+01
  -5.110  0.6870E+00  0.3831E+01
  -5.100  0.6795E+00  0.3837E+01
  -5.090  0.6720E+00  0.3844E+01
  -5.080  0.6644E+00  0.3851E+01
  -5.070  0.6570E+00  0.3857E+01
  -5.060  0.6497E+00  0.3864E+01
  -5.050  0.6426E+00  0.3870E+01
  -5.040  0.6356E+00  0.3877E+01
  -5.030  0.6289E+00  0.3883E+01
  -5.020  0.6224E+00  0.3889E+01
  -5.010  0.6161E+00  0.3895E+01
  -5.000  0.6098E+00  0.3901E+01
  -4.990  0.6036E+00  0.3907E+01
  -4.980  0.5975E+00  0.3913E+01
  -4.970  0.5914E+00  0.3919E+01
  -4.960  0.5854E+00  0.3925E+01
  -4.950  0.5794E+00  0.3931E+01
  -4.940  0.5735E+00  0.3937E+01
  -4.930  0.5679E+00  0.3942E+01
  -4.920  0.5625E+00  0.3948E+01
  -4.910  0.5576E+00  0.3954E+01
  -4.900  0.5532E+00  0.3959E+01
  -4.890  0.5496E+00  0.3965E+01
  -4.880  0.5468E+00  0.3970E+01
  -4.870  0.5450E+00  0.3976E+01
  -4.860  0.5443E+00  0.3981E+01
  -4.850  0.5449E+00  0.3986E+01
  -4.840  0.5468E+00  0.3992E+01
  -4.830  0.5499E+00  0.3997E+01
  -4.820  0.5544E+00  0.4003E+01
  -4.810  0.5600E+00  0.4009E+01
  -4.800  0.5669E+00  0.4014E+01
  -4.790  0.5747E+00  0.4020E+01
  -4.780  0.5834E+00  0.4026E+01
  -4.770  0.5928E+00  0.4032E+01
  -4.760  0.6028E+00  0.4038E+01
  -4.750  0.6131E+00  0.4044E+01
  -4.740  0.6235E+00  0.4050E+01
  -4.730  0.6341E+00  0.4056E+01
  -4.720  0.6446E+00  0.4063E+01
  -4.710  0.6550E+00  0.4069E+01
  -4.700  0.6653E+00  0.4076E+01
  -4.690  0.6754E+00  0.4083E+01
  -4.680  0.6854E+00  0.4090E+01
  -4.670  0.6954E+00  0.4097E+01
  -4.660  0.7055E+00  0.4104E+01
  -4.650  0.7155E+00  0.4111E+01
  -4.640  0.7257E+00  0.4118E+01
  -4.630  0.7360E+00  0.4125E+01
  -4.620  0.7465E+00  0.4133E+01
  -4.610  0.7569E+00  0.4141E+01
  -4.600  0.7672E+00  0.4148E+01
  -4.590  0.7773E+00  0.4156E+01
  -4.580  0.7868E+00  0.4164E+01
  -4.570  0.7956E+00  0.4172E+01
  -4.560  0.8033E+00  0.4180E+01
  -4.550  0.8097E+00  0.4188E+01
  -4.540  0.8144E+00  0.4196E+01
  -4.530  0.8173E+00  0.4204E+01
  -4.520  0.8181E+00  0.4212E+01
  -4.510  0.8168E+00  0.4221E+01
  -4.500  0.8131E+00  0.4229E+01
  -4.490  0.8073E+00  0.4237E+01
  -4.480  0.7993E+00  0.4245E+01
  -4.470  0.7895E+00  0.4253E+01
  -4.460  0.7779E+00  0.4260E+01
  -4.450  0.7650E+00  0.4268E+01
  -4.440  0.7511E+00  0.4276E+01
  -4.430  0.7366E+00  0.4283E+01
  -4.420  0.7217E+00  0.4290E+01
  -4.410  0.7068E+00  0.4297E+01
  -4.400  0.6921E+00  0.4304E+01
  -4.390  0.6779E+00  0.4311E+01
  -4.380  0.6644E+00  0.4318E+01
  -4.370  0.6515E+00  0.4324E+01
  -4.360  0.6393E+00  0.4331E+01
  -4.350  0.6277E+00  0.4337E+01
  -4.340  0.6168E+00  0.4343E+01
  -4.330  0.6064E+00  0.4349E+01
  -4.320  0.5963E+00  0.4355E+01
  -4.310  0.5866E+00  0.4361E+01
  -4.300  0.5771E+00  0.4367E+01
  -4.290  0.5677E+00  0.4372E+01
  -4.280  0.5585E+00  0.4378E+01
  -4.270  0.5494E+00  0.4383E+01
  -4.260  0.5405E+00  0.4389E+01
  -4.250  0.5318E+00  0.4394E+01
  -4.240  0.5233E+00  0.4399E+01
  -4.230  0.5152E+00  0.4404E+01
  -4.220  0.5075E+00  0.4410E+01
  -4.210  0.5003E+00  0.4415E+01
  -4.200  0.4934E+00  0.4419E+01
  -4.190  0.4871E+00  0.4424E+01
  -4.180  0.4811E+00  0.4429E+01
  -4.170  0.4756E+00  0.4434E+01
  -4.160  0.4704E+00  0.4439E+01
  -4.150  0.4655E+00  0.4443E+01
  -4.140  0.4608E+00  0.4448E+01
  -4.130  0.4562E+00  0.4452E+01
  -4.120  0.4517E+00  0.4457E+01
  -4.110  0.4472E+00  0.4461E+01
  -4.100  0.4427E+00  0.4466E+01
  -4.090  0.4382E+00  0.4470E+01
  -4.080  0.4337E+00  0.4475E+01
  -4.070  0.4292E+00  0.4479E+01
  -4.060  0.4248E+00  0.4483E+01
  -4.050  0.4204E+00  0.4487E+01
  -4.040  0.4161E+00  0.4491E+01
  -4.030  0.4119E+00  0.4496E+01
  -4.020  0.4078E+00  0.4500E+01
  -4.010  0.4038E+00  0.4504E+01
  -4.000  0.4000E+00  0.4508E+01
  -3.990  0.3963E+00  0.4512E+01
  -3.980  0.3928E+00  0.4516E+01
  -3.970  0.3893E+00  0.4520E+01
