#  E (eV)   dos(E)     Int dos(E) EFermi =   -1.145 eV
 -10.000  0.4315E+00  0.4315E-02
  -9.990  0.4273E+00  0.8587E-02
  -9.980  0.4245E+00  0.1283E-01
  -9.970  0.4233E+00  0.1707E-01
  -9.960  0.4239E+00  0.2130E-01
  -9.950  0.4264E+00  0.2557E-01
  -9.940  0.4307E+00  0.2988E-01
  -9.930  0.4367E+00  0.3424E-01
  -9.920  0.4442E+00  0.3869E-01
  -9.910  0.4530E+00  0.4321E-01
  -9.900  0.4626E+00  0.4784E-01
  -9.890  0.4728E+00  0.5257E-01
  -9.880  0.4831E+00  0.5740E-01
  -9.870  0.4931E+00  0.6233E-01
  -9.860  0.5024E+00  0.6736E-01
  -9.850  0.5105E+00  0.7246E-01
  -9.840  0.5171E+00  0.7763E-01
  -9.830  0.5219E+00  0.8285E-01
  -9.820  0.5247E+00  0.8810E-01
  -9.810  0.5254E+00  0.9335E-01
  -9.800  0.5239E+00  0.9859E-01
  -9.790  0.5203E+00  0.1038E+00
  -9.780  0.5147E+00  0.1089E+00
  -9.770  0.5075E+00  0.1140E+00
  -9.760  0.4988E+00  0.1190E+00
  -9.750  0.4891E+00  0.1239E+00
  -9.740  0.4789E+00  0.1287E+00
  -9.730  0.4686E+00  0.1334E+00
  -9.720  0.4586E+00  0.1380E+00
  -9.710  0.4494E+00  0.1424E+00
  -9.700  0.4414E+00  0.1469E+00
  -9.690  0.4349E+00  0.1512E+00
  -9.680  0.4304E+00  0.1555E+00
  -9.670  0.4278E+00  0.1598E+00
  -9.660  0.4274E+00  0.1641E+00
  -9.650  0.4292E+00  0.1684E+00
  -9.640  0.4330E+00  0.1727E+00
  -9.630  0.4388E+00  0.1771E+00
  -9.620  0.4462E+00  0.1815E+00
  -9.610  0.4550E+00  0.1861E+00
  -9.600  0.4647E+00  0.1907E+00
  -9.590  0.4751E+00  0.1955E+00
  -9.580  0.4857E+00  0.2003E+00
  -9.570  0.4961E+00  0.2053E+00
  -9.560  0.5060E+00  0.2104E+00
  -9.550  0.5149E+00  0.2155E+00
  -9.540  0.5227E+00  0.2207E+00
  -9.530  0.5291E+00  0.2260E+00
  -9.520  0.5339E+00  0.2314E+00
  -9.510  0.5370E+00  0.2367E+00
  -9.500  0.5384E+00  0.2421E+00
  -9.490  0.5381E+00  0.2475E+00
  -9.480  0.5363E+00  0.2529E+00
  -9.470  0.5330E+00  0.2582E+00
  -9.460  0.5285E+00  0.2635E+00
  -9.450  0.5230E+00  0.2687E+00
  -9.440  0.5167E+00  0.2739E+00
  -9.430  0.5100E+00  0.2790E+00
  -9.420  0.5032E+00  0.2840E+00
  -9.410  0.4964E+00  0.2890E+00
  -9.400  0.4900E+00  0.2939E+00
  -9.390  0.4842E+00  0.2987E+00
  -9.380  0.4793E+00  0.3035E+00
  -9.370  0.4753E+00  0.3083E+00
  -9.360  0.4724E+00  0.3130E+00
  -9.350  0.4707E+00  0.3177E+00
  -9.340  0.4702E+00  0.3224E+00
  -9.330  0.4709E+00  0.3271E+00
  -9.320  0.4727E+00  0.3318E+00
  -9.310  0.4755E+00  0.3366E+00
  -9.300  0.4792E+00  0.3414E+00
  -9.290  0.4836E+00  0.3462E+00
  -9.280  0.4885E+00  0.3511E+00
  -9.270  0.4938E+00  0.3560E+00
  -9.260  0.4992E+00  0.3610E+00
  -9.250  0.5047E+00  0.3661E+00
  -9.240  0.5099E+00  0.3712E+00
  -9.230  0.5149E+00  0.3763E+00
  -9.220  0.5195E+00  0.3815E+00
  -9.210  0.5236E+00  0.3868E+00
  -9.200  0.5272E+00  0.3920E+00
  -9.190  0.5303E+00  0.3973E+00
  -9.180  0.5328E+00  0.4027E+00
  -9.170  0.5349E+00  0.4080E+00
  -9.160  0.5365E+00  0.4134E+00
  -9.150  0.5377E+00  0.4187E+00
  -9.140  0.5385E+00  0.4241E+00
  -9.130  0.5390E+00  0.4295E+00
  -9.120  0.5393E+00  0.4349E+00
  -9.110  0.5393E+00  0.4403E+00
  -9.100  0.5392E+00  0.4457E+00
  -9.090  0.5389E+00  0.4511E+00
  -9.080  0.5386E+00  0.4565E+00
  -9.070  0.5383E+00  0.4619E+00
  -9.060  0.5380E+00  0.4672E+00
  -9.050  0.5378E+00  0.4726E+00
  -9.040  0.5379E+00  0.4780E+00
  -9.030  0.5382E+00  0.4834E+00
  -9.020  0.5389E+00  0.4888E+00
  -9.010  0.5402E+00  0.4942E+00
  -9.000  0.5421E+00  0.4996E+00
  -8.990  0.5448E+00  0.5050E+00
  -8.980  0.5483E+00  0.5105E+00
  -8.970  0.5529E+00  0.5161E+00
  -8.960  0.5584E+00  0.5216E+00
  -8.950  0.5651E+00  0.5273E+00
  -8.940  0.5728E+00  0.5330E+00
  -8.930  0.5816E+00  0.5388E+00
  -8.920  0.5914E+00  0.5447E+00
  -8.910  0.6021E+00  0.5508E+00
  -8.900  0.6137E+00  0.5569E+00
  -8.890  0.6259E+00  0.5632E+00
  -8.880  0.6387E+00  0.5695E+00
  -8.870  0.6518E+00  0.5761E+00
  -8.860  0.6652E+00  0.5827E+00
  -8.850  0.6787E+00  0.5895E+00
  -8.840  0.6921E+00  0.5964E+00
  -8.830  0.7053E+00  0.6035E+00
  -8.820  0.7182E+00  0.6107E+00
  -8.810  0.7308E+00  0.6180E+00
  -8.800  0.7429E+00  0.6254E+00
  -8.790  0.7545E+00  0.6329E+00
  -8.780  0.7657E+00  0.6406E+00
  -8.770  0.7763E+00  0.6484E+00
  -8.760  0.7863E+00  0.6562E+00
  -8.750  0.7959E+00  0.6642E+00
  -8.740  0.8049E+00  0.6722E+00
  -8.730  0.8135E+00  0.6804E+00
  -8.720  0.8217E+00  0.6886E+00
  -8.710  0.8294E+00  0.6969E+00
  -8.700  0.8367E+00  0.7052E+00
  -8.690  0.8437E+00  0.7137E+00
  -8.680  0.8504E+00  0.7222E+00
  -8.670  0.8567E+00  0.7308E+00
  -8.660  0.8628E+00  0.7394E+00
  -8.650  0.8684E+00  0.7481E+00
  -8.640  0.8737E+00  0.7568E+00
  -8.630  0.8785E+00  0.7656E+00
  -8.620  0.8829E+00  0.7744E+00
  -8.610  0.8867E+00  0.7833E+00
  -8.600  0.8899E+00  0.7922E+00
  -8.590  0.8923E+00  0.8011E+00
  -8.580  0.8940E+00  0.8100E+00
  -8.570  0.8949E+00  0.8190E+00
  -8.560  0.8949E+00  0.8279E+00
  -8.550  0.8941E+00  0.8369E+00
  -8.540  0.8926E+00  0.8458E+00
  -8.530  0.8904E+00  0.8547E+00
  -8.520  0.8876E+00  0.8636E+00
  -8.510  0.8846E+00  0.8724E+00
  -8.500  0.8813E+00  0.8813E+00
  -8.490  0.8781E+00  0.8900E+00
  -8.480  0.8753E+00  0.8988E+00
  -8.470  0.8730E+00  0.9075E+00
  -8.460  0.8716E+00  0.9162E+00
  -8.450  0.8711E+00  0.9249E+00
  -8.440  0.8718E+00  0.9337E+00
  -8.430  0.8739E+00  0.9424E+00
  -8.420  0.8772E+00  0.9512E+00
  -8.410  0.8820E+00  0.9600E+00
  -8.400  0.8881E+00  0.9689E+00
  -8.390  0.8953E+00  0.9778E+00
  -8.380  0.9036E+00  0.9869E+00
  -8.370  0.9127E+00  0.9960E+00
  -8.360  0.9224E+00  0.1005E+01
  -8.350  0.9324E+00  0.1015E+01
  -8.340  0.9424E+00  0.1024E+01
  -8.330  0.9522E+00  0.1033E+01
  -8.320  0.9615E+00  0.1043E+01
  -8.310  0.9700E+00  0.1053E+01
  -8.300  0.9777E+00  0.1063E+01
  -8.290  0.9843E+00  0.1072E+01
  -8.280  0.9897E+00  0.1082E+01
  -8.270  0.9939E+00  0.1092E+01
  -8.260  0.9969E+00  0.1102E+01
  -8.250  0.9986E+00  0.1112E+01
  -8.240  0.9993E+00  0.1122E+01
  -8.230  0.9990E+00  0.1132E+01
  -8.220  0.9979E+00  0.1142E+01
  -8.210  0.9962E+00  0.1152E+01
  -8.200  0.9942E+00  0.1162E+01
  -8.190  0.9920E+00  0.1172E+01
  -8.180  0.9901E+00  0.1182E+01
  -8.170  0.9885E+00  0.1192E+01
  -8.160  0.9876E+00  0.1202E+01
  -8.150  0.9875E+00  0.1212E+01
  -8.140  0.9885E+00  0.1221E+01
  -8.130  0.9905E+00  0.1231E+01
  -8.120  0.9938E+00  0.1241E+01
  -8.110  0.9982E+00  0.1251E+01
  -8.100  0.1004E+01  0.1261E+01
  -8.090  0.1011E+01  0.1271E+01
  -8.080  0.1019E+01  0.1282E+01
  -8.070  0.1027E+01  0.1292E+01
  -8.060  0.1037E+01  0.1302E+01
  -8.050  0.1047E+01  0.1313E+01
  -8.040  0.1058E+01  0.1323E+01
  -8.030  0.1069E+01  0.1334E+01
  -8.020  0.1081E+01  0.1345E+01
  -8.010  0.1093E+01  0.1356E+01
  -8.000  0.1105E+01  0.1367E+01
  -7.990  0.1118E+01  0.1378E+01
  -7.980  0.1131E+01  0.1389E+01
  -7.970  0.1144E+01  0.1401E+01
  -7.960  0.1157E+01  0.1412E+01
  -7.950  0.1171E+01  0.1424E+01
  -7.940  0.1185E+01  0.1436E+01
  -7.930  0.1199E+01  0.1448E+01
  -7.920  0.1214E+01  0.1460E+01
  -7.910  0.1228E+01  0.1472E+01
  -7.900  0.1242E+01  0.1485E+01
  -7.890  0.1256E+01  0.1497E+01
  -7.880  0.1269E+01  0.1510E+01
  -7.870  0.1282E+01  0.1523E+01
  -7.860  0.1293E+01  0.1536E+01
  -7.850  0.1303E+01  0.1549E+01
  -7.840  0.1312E+01  0.1562E+01
  -7.830  0.1320E+01  0.1575E+01
  -7.820  0.1326E+01  0.1588E+01
  -7.810  0.1330E+01  0.1602E+01
  -7.800  0.1333E+01  0.1615E+01
  -7.790  0.1333E+01  0.1628E+01
  -7.780  0.1333E+01  0.1642E+01
  -7.770  0.1330E+01  0.1655E+01
  -7.760  0.1325E+01  0.1668E+01
  -7.750  0.1319E+01  0.1681E+01
  -7.740  0.1312E+01  0.1694E+01
  -7.730  0.1303E+01  0.1707E+01
  -7.720  0.1292E+01  0.1720E+01
  -7.710  0.1280E+01  0.1733E+01
  -7.700  0.1267E+01  0.1746E+01
  -7.690  0.1253E+01  0.1758E+01
  -7.680  0.1238E+01  0.1771E+01
  -7.670  0.1222E+01  0.1783E+01
  -7.660  0.1205E+01  0.1795E+01
  -7.650  0.1188E+01  0.1807E+01
  -7.640  0.1171E+01  0.1819E+01
  -7.630  0.1154E+01  0.1830E+01
  -7.620  0.1137E+01  0.1842E+01
  -7.610  0.1121E+01  0.1853E+01
  -7.600  0.1105E+01  0.1864E+01
  -7.590  0.1091E+01  0.1875E+01
  -7.580  0.1078E+01  0.1885E+01
  -7.570  0.1067E+01  0.1896E+01
  -7.560  0.1058E+01  0.1907E+01
  -7.550  0.1050E+01  0.1917E+01
  -7.540  0.1044E+01  0.1928E+01
  -7.530  0.1040E+01  0.1938E+01
  -7.520  0.1038E+01  0.1948E+01
  -7.510  0.1036E+01  0.1959E+01
  -7.500  0.1036E+01  0.1969E+01
  -7.490  0.1037E+01  0.1980E+01
  -7.480  0.1038E+01  0.1990E+01
  -7.470  0.1039E+01  0.2000E+01
  -7.460  0.1040E+01  0.2011E+01
  -7.450  0.1040E+01  0.2021E+01
  -7.440  0.1039E+01  0.2032E+01
  -7.430  0.1037E+01  0.2042E+01
  -7.420  0.1033E+01  0.2052E+01
  -7.410  0.1027E+01  0.2062E+01
  -7.400  0.1020E+01  0.2073E+01
  -7.390  0.1010E+01  0.2083E+01
  -7.380  0.9995E+00  0.2093E+01
  -7.370  0.9871E+00  0.2103E+01
  -7.360  0.9736E+00  0.2112E+01
  -7.350  0.9592E+00  0.2122E+01
  -7.340  0.9446E+00  0.2131E+01
  -7.330  0.9300E+00  0.2141E+01
  -7.320  0.9159E+00  0.2150E+01
  -7.310  0.9028E+00  0.2159E+01
  -7.300  0.8911E+00  0.2168E+01
  -7.290  0.8811E+00  0.2177E+01
  -7.280  0.8730E+00  0.2185E+01
  -7.270  0.8671E+00  0.2194E+01
  -7.260  0.8634E+00  0.2203E+01
  -7.250  0.8618E+00  0.2211E+01
  -7.240  0.8624E+00  0.2220E+01
  -7.230  0.8648E+00  0.2229E+01
  -7.220  0.8687E+00  0.2237E+01
  -7.210  0.8738E+00  0.2246E+01
  -7.200  0.8797E+00  0.2255E+01
  -7.190  0.8858E+00  0.2264E+01
  -7.180  0.8919E+00  0.2273E+01
  -7.170  0.8973E+00  0.2282E+01
  -7.160  0.9019E+00  0.2291E+01
  -7.150  0.9052E+00  0.2300E+01
  -7.140  0.9071E+00  0.2309E+01
  -7.130  0.9074E+00  0.2318E+01
  -7.120  0.9061E+00  0.2327E+01
  -7.110  0.9032E+00  0.2336E+01
  -7.100  0.8989E+00  0.2345E+01
  -7.090  0.8933E+00  0.2354E+01
  -7.080  0.8867E+00  0.2363E+01
  -7.070  0.8794E+00  0.2371E+01
  -7.060  0.8717E+00  0.2380E+01
  -7.050  0.8639E+00  0.2389E+01
  -7.040  0.8563E+00  0.2397E+01
  -7.030  0.8491E+00  0.2406E+01
  -7.020  0.8426E+00  0.2414E+01
  -7.010  0.8368E+00  0.2423E+01
  -7.000  0.8320E+00  0.2431E+01
  -6.990  0.8281E+00  0.2439E+01
  -6.980  0.8252E+00  0.2447E+01
  -6.970  0.8231E+00  0.2456E+01
  -6.960  0.8218E+00  0.2464E+01
  -6.950  0.8213E+00  0.2472E+01
  -6.940  0.8212E+00  0.2480E+01
  -6.930  0.8216E+00  0.2489E+01
  -6.920  0.8221E+00  0.2497E+01
  -6.910  0.8226E+00  0.2505E+01
  -6.900  0.8231E+00  0.2513E+01
  -6.890  0.8233E+00  0.2521E+01
  -6.880  0.8230E+00  0.2530E+01
  -6.870  0.8223E+00  0.2538E+01
  -6.860  0.8209E+00  0.2546E+01
  -6.850  0.8189E+00  0.2554E+01
  -6.840  0.8162E+00  0.2562E+01
  -6.830  0.8128E+00  0.2571E+01
  -6.820  0.8088E+00  0.2579E+01
  -6.810  0.8042E+00  0.2587E+01
  -6.800  0.7993E+00  0.2595E+01
  -6.790  0.7940E+00  0.2603E+01
  -6.780  0.7887E+00  0.2611E+01
  -6.770  0.7835E+00  0.2618E+01
  -6.760  0.7786E+00  0.2626E+01
  -6.750  0.7743E+00  0.2634E+01
  -6.740  0.7707E+00  0.2642E+01
  -6.730  0.7681E+00  0.2649E+01
  -6.720  0.7667E+00  0.2657E+01
  -6.710  0.7664E+00  0.2665E+01
  -6.700  0.7675E+00  0.2672E+01
  -6.690  0.7698E+00  0.2680E+01
  -6.680  0.7733E+00  0.2688E+01
  -6.670  0.7779E+00  0.2696E+01
  -6.660  0.7832E+00  0.2703E+01
  -6.650  0.7891E+00  0.2711E+01
  -6.640  0.7952E+00  0.2719E+01
  -6.630  0.8010E+00  0.2727E+01
  -6.620  0.8063E+00  0.2735E+01
  -6.610  0.8107E+00  0.2743E+01
  -6.600  0.8137E+00  0.2752E+01
  -6.590  0.8152E+00  0.2760E+01
  -6.580  0.8148E+00  0.2768E+01
  -6.570  0.8125E+00  0.2776E+01
  -6.560  0.8082E+00  0.2784E+01
  -6.550  0.8019E+00  0.2792E+01
  -6.540  0.7938E+00  0.2800E+01
  -6.530  0.7842E+00  0.2808E+01
  -6.520  0.7734E+00  0.2816E+01
  -6.510  0.7618E+00  0.2823E+01
  -6.500  0.7498E+00  0.2831E+01
  -6.490  0.7381E+00  0.2838E+01
  -6.480  0.7270E+00  0.2845E+01
  -6.470  0.7170E+00  0.2853E+01
  -6.460  0.7086E+00  0.2860E+01
  -6.450  0.7022E+00  0.2867E+01
  -6.440  0.6980E+00  0.2874E+01
  -6.430  0.6961E+00  0.2881E+01
  -6.420  0.6968E+00  0.2888E+01
  -6.410  0.6998E+00  0.2895E+01
  -6.400  0.7051E+00  0.2902E+01
  -6.390  0.7124E+00  0.2909E+01
  -6.380  0.7212E+00  0.2916E+01
  -6.370  0.7312E+00  0.2923E+01
  -6.360  0.7419E+00  0.2931E+01
  -6.350  0.7526E+00  0.2938E+01
  -6.340  0.7629E+00  0.2946E+01
  -6.330  0.7722E+00  0.2954E+01
  -6.320  0.7801E+00  0.2961E+01
  -6.310  0.7862E+00  0.2969E+01
  -6.300  0.7902E+00  0.2977E+01
  -6.290  0.7919E+00  0.2985E+01
  -6.280  0.7914E+00  0.2993E+01
  -6.270  0.7885E+00  0.3001E+01
  -6.260  0.7836E+00  0.3009E+01
  -6.250  0.7768E+00  0.3016E+01
  -6.240  0.7685E+00  0.3024E+01
  -6.230  0.7591E+00  0.3032E+01
  -6.220  0.7490E+00  0.3039E+01
  -6.210  0.7387E+00  0.3047E+01
  -6.200  0.7286E+00  0.3054E+01
  -6.190  0.7190E+00  0.3061E+01
  -6.180  0.7103E+00  0.3068E+01
  -6.170  0.7027E+00  0.3075E+01
  -6.160  0.6965E+00  0.3082E+01
  -6.150  0.6918E+00  0.3089E+01
  -6.140  0.6885E+00  0.3096E+01
  -6.130  0.6868E+00  0.3103E+01
  -6.120  0.6864E+00  0.3110E+01
  -6.110  0.6874E+00  0.3117E+01
  -6.100  0.6895E+00  0.3123E+01
  -6.090  0.6926E+00  0.3130E+01
  -6.080  0.6965E+00  0.3137E+01
  -6.070  0.7010E+00  0.3144E+01
  -6.060  0.7059E+00  0.3151E+01
  -6.050  0.7112E+00  0.3159E+01
  -6.040  0.7165E+00  0.3166E+01
  -6.030  0.7218E+00  0.3173E+01
  -6.020  0.7270E+00  0.3180E+01
  -6.010  0.7319E+00  0.3187E+01
  -6.000  0.7363E+00  0.3195E+01
  -5.990  0.7402E+00  0.3202E+01
  -5.980  0.7435E+00  0.3210E+01
  -5.970  0.7461E+00  0.3217E+01
  -5.960  0.7478E+00  0.3225E+01
  -5.950  0.7486E+00  0.3232E+01
  -5.940  0.7483E+00  0.3240E+01
  -5.930  0.7470E+00  0.3247E+01
  -5.920  0.7446E+00  0.3255E+01
  -5.910  0.7412E+00  0.3262E+01
  -5.900  0.7367E+00  0.3269E+01
  -5.890  0.7312E+00  0.3277E+01
  -5.880  0.7250E+00  0.3284E+01
  -5.870  0.7181E+00  0.3291E+01
  -5.860  0.7108E+00  0.3298E+01
  -5.850  0.7033E+00  0.3305E+01
  -5.840  0.6959E+00  0.3312E+01
  -5.830  0.6890E+00  0.3319E+01
  -5.820  0.6827E+00  0.3326E+01
  -5.810  0.6774E+00  0.3333E+01
  -5.800  0.6734E+00  0.3339E+01
  -5.790  0.6708E+00  0.3346E+01
  -5.780  0.6698E+00  0.3353E+01
  -5.770  0.6705E+00  0.3359E+01
  -5.760  0.6729E+00  0.3366E+01
  -5.750  0.6769E+00  0.3373E+01
  -5.740  0.6824E+00  0.3380E+01
  -5.730  0.6892E+00  0.3387E+01
  -5.720  0.6969E+00  0.3394E+01
  -5.710  0.7052E+00  0.3401E+01
  -5.700  0.7137E+00  0.3408E+01
  -5.690  0.7221E+00  0.3415E+01
  -5.680  0.7298E+00  0.3422E+01
  -5.670  0.7366E+00  0.3430E+01
  -5.660  0.7421E+00  0.3437E+01
  -5.650  0.7460E+00  0.3445E+01
  -5.640  0.7482E+00  0.3452E+01
  -5.630  0.7486E+00  0.3460E+01
  -5.620  0.7472E+00  0.3467E+01
  -5.610  0.7440E+00  0.3474E+01
  -5.600  0.7393E+00  0.3482E+01
  -5.590  0.7332E+00  0.3489E+01
  -5.580  0.7262E+00  0.3496E+01
  -5.570  0.7185E+00  0.3504E+01
  -5.560  0.7105E+00  0.3511E+01
  -5.550  0.7026E+00  0.3518E+01
  -5.540  0.6951E+00  0.3525E+01
  -5.530  0.6883E+00  0.3532E+01
  -5.520  0.6825E+00  0.3538E+01
  -5.510  0.6779E+00  0.3545E+01
  -5.500  0.6747E+00  0.3552E+01
  -5.490  0.6730E+00  0.3559E+01
  -5.480  0.6727E+00  0.3565E+01
  -5.470  0.6740E+00  0.3572E+01
  -5.460  0.6766E+00  0.3579E+01
  -5.450  0.6805E+00  0.3586E+01
  -5.440  0.6855E+00  0.3593E+01
  -5.430  0.6914E+00  0.3600E+01
  -5.420  0.6980E+00  0.3606E+01
  -5.410  0.7050E+00  0.3614E+01
  -5.400  0.7121E+00  0.3621E+01
  -5.390  0.7192E+00  0.3628E+01
  -5.380  0.7260E+00  0.3635E+01
  -5.370  0.7322E+00  0.3642E+01
  -5.360  0.7376E+00  0.3650E+01
  -5.350  0.7421E+00  0.3657E+01
  -5.340  0.7455E+00  0.3665E+01
  -5.330  0.7477E+00  0.3672E+01
  -5.320  0.7486E+00  0.3680E+01
  -5.310  0.7483E+00  0.3687E+01
  -5.300  0.7468E+00  0.3695E+01
  -5.290  0.7441E+00  0.3702E+01
  -5.280  0.7404E+00  0.3709E+01
  -5.270  0.7357E+00  0.3717E+01
  -5.260  0.7304E+00  0.3724E+01
  -5.250  0.7246E+00  0.3731E+01
  -5.240  0.7184E+00  0.3739E+01
  -5.230  0.7122E+00  0.3746E+01
  -5.220  0.7060E+00  0.3753E+01
  -5.210  0.7002E+00  0.3760E+01
  -5.200  0.6948E+00  0.3767E+01
  -5.190  0.6900E+00  0.3774E+01
  -5.180  0.6859E+00  0.3780E+01
  -5.170  0.6826E+00  0.3787E+01
  -5.160  0.6801E+00  0.3794E+01
  -5.150  0.6783E+00  0.3801E+01
  -5.140  0.6772E+00  0.3808E+01
  -5.130  0.6767E+00  0.3814E+01
  -5.120  0.6766E+00  0.3821E+01
  -5.110  0.6768E+00  0.3828E+01
  -5.100  0.6770E+00  0.3835E+01
  -5.090  0.6771E+00  0.3841E+01
  -5.080  0.6767E+00  0.3848E+01
  -5.070  0.6758E+00  0.3855E+01
  -5.060  0.6740E+00  0.3862E+01
  -5.050  0.6712E+00  0.3868E+01
  -5.040  0.6674E+00  0.3875E+01
  -5.030  0.6623E+00  0.3882E+01
  -5.020  0.6559E+00  0.3888E+01
  -5.010  0.6482E+00  0.3895E+01
  -5.000  0.6394E+00  0.3901E+01
  -4.990  0.6294E+00  0.3907E+01
  -4.980  0.6186E+00  0.3914E+01
  -4.970  0.6071E+00  0.3920E+01
  -4.960  0.5951E+00  0.3926E+01
  -4.950  0.5830E+00  0.3931E+01
  -4.940  0.5711E+00  0.3937E+01
  -4.930  0.5597E+00  0.3943E+01
  -4.920  0.5491E+00  0.3948E+01
  -4.910  0.5396E+00  0.3954E+01
  -4.900  0.5316E+00  0.3959E+01
  -4.890  0.5253E+00  0.3964E+01
  -4.880  0.5208E+00  0.3969E+01
  -4.870  0.5184E+00  0.3975E+01
  -4.860  0.5182E+00  0.3980E+01
  -4.850  0.5201E+00  0.3985E+01
  -4.840  0.5242E+00  0.3990E+01
  -4.830  0.5304E+00  0.3996E+01
  -4.820  0.5386E+00  0.4001E+01
  -4.810  0.5485E+00  0.4006E+01
  -4.800  0.5599E+00  0.4012E+01
  -4.790  0.5725E+00  0.4018E+01
  -4.780  0.5861E+00  0.4024E+01
  -4.770  0.6002E+00  0.4030E+01
  -4.760  0.6145E+00  0.4036E+01
  -4.750  0.6287E+00  0.4042E+01
  -4.740  0.6426E+00  0.4048E+01
  -4.730  0.6558E+00  0.4055E+01
  -4.720  0.6681E+00  0.4062E+01
  -4.710  0.6794E+00  0.4069E+01
  -4.700  0.6896E+00  0.4075E+01
  -4.690  0.6987E+00  0.4082E+01
  -4.680  0.7067E+00  0.4089E+01
  -4.670  0.7137E+00  0.4097E+01
  -4.660  0.7198E+00  0.4104E+01
  -4.650  0.7252E+00  0.4111E+01
  -4.640  0.7302E+00  0.4118E+01
  -4.630  0.7350E+00  0.4126E+01
  -4.620  0.7398E+00  0.4133E+01
  -4.610  0.7447E+00  0.4141E+01
  -4.600  0.7500E+00  0.4148E+01
  -4.590  0.7557E+00  0.4156E+01
  -4.580  0.7620E+00  0.4163E+01
  -4.570  0.7686E+00  0.4171E+01
  -4.560  0.7756E+00  0.4179E+01
  -4.550  0.7828E+00  0.4187E+01
  -4.540  0.7898E+00  0.4194E+01
  -4.530  0.7963E+00  0.4202E+01
  -4.520  0.8020E+00  0.4210E+01
  -4.510  0.8066E+00  0.4218E+01
  -4.500  0.8095E+00  0.4227E+01
  -4.490  0.8105E+00  0.4235E+01
  -4.480  0.8093E+00  0.4243E+01
  -4.470  0.8055E+00  0.4251E+01
  -4.460  0.7991E+00  0.4259E+01
  -4.450  0.7901E+00  0.4267E+01
  -4.440  0.7784E+00  0.4274E+01
  -4.430  0.7644E+00  0.4282E+01
  -4.420  0.7483E+00  0.4290E+01
  -4.410  0.7305E+00  0.4297E+01
  -4.400  0.7115E+00  0.4304E+01
  -4.390  0.6918E+00  0.4311E+01
  -4.380  0.6719E+00  0.4318E+01
  -4.370  0.6524E+00  0.4324E+01
  -4.360  0.6337E+00  0.4331E+01
  -4.350  0.6163E+00  0.4337E+01
  -4.340  0.6005E+00  0.4343E+01
  -4.330  0.5864E+00  0.4349E+01
  -4.320  0.5743E+00  0.4354E+01
  -4.310  0.5641E+00  0.4360E+01
  -4.300  0.5557E+00  0.4365E+01
  -4.290  0.5488E+00  0.4371E+01
  -4.280  0.5433E+00  0.4376E+01
  -4.270  0.5387E+00  0.4382E+01
  -4.260  0.5348E+00  0.4387E+01
  -4.250  0.5312E+00  0.4392E+01
  -4.240  0.5276E+00  0.4398E+01
  -4.230  0.5236E+00  0.4403E+01
  -4.220  0.5192E+00  0.4408E+01
  -4.210  0.5141E+00  0.4413E+01
  -4.200  0.5083E+00  0.4418E+01
  -4.190  0.5018E+00  0.4423E+01
  -4.180  0.4947E+00  0.4428E+01
  -4.170  0.4871E+00  0.4433E+01
  -4.160  0.4791E+00  0.4438E+01
  -4.150  0.4711E+00  0.4443E+01
  -4.140  0.4631E+00  0.4447E+01
  -4.130  0.4554E+00  0.4452E+01
  -4.120  0.4482E+00  0.4456E+01
  -4.110  0.4415E+00  0.4461E+01
  -4.100  0.4355E+00  0.4465E+01
  -4.090  0.4302E+00  0.4469E+01
  -4.080  0.4256E+00  0.4474E+01
  -4.070  0.4217E+00  0.4478E+01
  -4.060  0.4183E+00  0.4482E+01
  -4.050  0.4153E+00  0.4486E+01
  -4.040  0.4126E+00  0.4490E+01
  -4.030  0.4101E+00  0.4495E+01
  -4.020  0.4076E+00  0.4499E+01
  -4.010  0.4050E+00  0.4503E+01
  -4.000  0.4023E+00  0.4507E+01
  -3.990  0.3994E+00  0.4511E+01
  -3.980  0.3962E+00  0.4515E+01
  -3.970  0.3928E+00  0.4519E+01
