# energy grid [eV]  eels components [arbitrary units]
#
    0.001000000    0.000004572    0.000004572    0.000001283
    0.021019019    0.000096150    0.000096152    0.000026985
    0.041038038    0.000188011    0.000188015    0.000052822
    0.061057057    0.000280429    0.000280435    0.000078926
    0.081076076    0.000373682    0.000373690    0.000105430
    0.101095095    0.000468056    0.000468066    0.000132478
    0.121114114    0.000563850    0.000563862    0.000160222
    0.141133133    0.000661375    0.000661390    0.000188823
    0.161152152    0.000760963    0.000760980    0.000218462
    0.181171171    0.000862965    0.000862985    0.000249336
    0.201190190    0.000967761    0.000967783    0.000281669
    0.221209209    0.001075760    0.001075785    0.000315710
    0.241228228    0.001187408    0.001187436    0.000351748
    0.261247247    0.001303196    0.001303226    0.000390115
    0.281266266    0.001423663    0.001423697    0.000431197
    0.301285285    0.001549412    0.001549449    0.000475447
    0.321304304    0.001681111    0.001681153    0.000523403
    0.341323323    0.001819516    0.001819562    0.000575708
    0.361342342    0.001965477    0.001965527    0.000633136
    0.381361361    0.002119960    0.002120015    0.000696631
    0.401380380    0.002284070    0.002284130    0.000767350
    0.421399399    0.002459075    0.002459140    0.000846730
    0.441418418    0.002646437    0.002646509    0.000936576
    0.461437437    0.002847857    0.002847936    0.001039174
    0.481456456    0.003065320    0.003065407    0.001157467
    0.501475475    0.003301162    0.003301258    0.001295286
    0.521494494    0.003558146    0.003558251    0.001457702
    0.541513514    0.003839562    0.003839678    0.001651540
    0.561532533    0.004149360    0.004149489    0.001886161
    0.581551552    0.004492317    0.004492460    0.002174679
    0.601570571    0.004874259    0.004874419    0.002535931
    0.621589590    0.005302355    0.005302533    0.002997735
    0.641608609    0.005785512    0.005785712    0.003602543
    0.661627628    0.006334917    0.006335142    0.004417684
    0.681646647    0.006964781    0.006965035    0.005554962
    0.701665666    0.007693392    0.007693680    0.007210663
    0.721684685    0.008544614    0.008544943    0.009753841
    0.741703704    0.009550084    0.009550462    0.013940507
    0.761722723    0.010752486    0.010752925    0.021496072
    0.781741742    0.012210561    0.012211074    0.036912104
    0.801760761    0.014006984    0.014007589    0.073326758
    0.821779780    0.016261157    0.016261878    0.158424136
    0.841798799    0.019150733    0.019151607    0.191970932
    0.861817818    0.022949432    0.022950509    0.096723135
    0.881836837    0.028096720    0.028098069    0.046289245
    0.901855856    0.035333938    0.035335667    0.025790753
    0.921874875    0.045989352    0.045991626    0.016267913
    0.941893894    0.062627122    0.062630216    0.011216558
    0.961912913    0.090683196    0.090687580    0.008256363
    0.981931932    0.143117984    0.143124519    0.006389508
    1.001950951    0.255345456    0.255355821    0.005145942
    1.021969970    0.530471590    0.530490409    0.004282706
    1.041988989    1.045782571    1.045843378    0.003664629
    1.062008008    0.859443871    0.859540341    0.003211933
    1.082027027    0.404487720    0.404532900    0.002875225
    1.102046046    0.212576927    0.212596341    0.002622713
    1.122065065    0.134790108    0.134798256    0.002433284
    1.142084084    0.102150039    0.102151233    0.002292565
    1.162103103    0.093760051    0.093753885    0.002190604
    1.182122122    0.108694921    0.108675320    0.002120445
    1.202141141    0.167262538    0.167209533    0.002077234
    1.222160160    0.309852471    0.309761787    0.002057649
    1.242179179    0.325700098    0.325757048    0.002059548
    1.262198198    0.175323560    0.175367716    0.002081725
    1.282217217    0.108573828    0.108585220    0.002123781
    1.302236236    0.093854681    0.093847505    0.002186064
    1.322255255    0.117815987    0.117783638    0.002269668
    1.342274274    0.204441867    0.204365978    0.002376496
    1.362293293    0.264651301    0.264657033    0.002509384
    1.382312312    0.148393095    0.148429850    0.002672332
    1.402331331    0.077736038    0.077750419    0.002870812
    1.422350350    0.048513581    0.048519387    0.003112279
    1.442369369    0.034762180    0.034764929    0.003406918
    1.462388388    0.027369547    0.027371058    0.003768807
    1.482407407    0.023021326    0.023022282    0.004217738
    1.502426426    0.020335886    0.020336583    0.004782160
    1.522445445    0.018668318    0.018668905    0.005504143
    1.542464464    0.017695452    0.017696021    0.006448071
    1.562483483    0.017255234    0.017255858    0.007716732
    1.582502503    0.017281995    0.017282755    0.009482971
    1.602521522    0.017786804    0.017787810    0.012056932
    1.622540541    0.018871814    0.018873253    0.016042649
    1.642559560    0.020797040    0.020799266    0.022746163
    1.662578579    0.024179789    0.024183561    0.035385390
    1.682597598    0.030617625    0.030624815    0.063038961
    1.702616617    0.044730490    0.044746302    0.128720516
    1.722635636    0.076421247    0.076455423    0.191872614
    1.742654655    0.091968242    0.091994030    0.128017822
    1.762673674    0.061903958    0.061912269    0.099148629
    1.782692693    0.048685672    0.048688131    0.133395520
    1.802711712    0.048266554    0.048265569    0.245869954
    1.822730731    0.055161479    0.055157253    0.252759483
    1.842749750    0.069723743    0.069715007    0.124438258
    1.862768769    0.096842117    0.096824472    0.062907967
    1.882787788    0.141680750    0.141641703    0.037194781
    1.902806807    0.218607060    0.218546944    0.024809245
    1.922825826    0.405687470    0.405562780    0.018048447
    1.942844845    0.869601763    0.869336561    0.014018836
    1.962863864    1.253981203    1.254084508    0.011477061
    1.982882883    0.694886636    0.695119423    0.009827517
    2.002901902    0.329695302    0.329789838    0.008762338
    2.022920921    0.182832108    0.182872089    0.008116614
    2.042939940    0.116719273    0.116738731    0.007805426
    2.062958959    0.082795320    0.082805861    0.007796353
    2.082977978    0.063720925    0.063727051    0.008100562
    2.102996997    0.052443558    0.052447276    0.008777698
    2.123016016    0.045788495    0.045790871    0.009957640
    2.143035035    0.042317505    0.042319376    0.011892987
    2.163054054    0.041654402    0.041656977    0.015081160
    2.183073073    0.043382494    0.043384916    0.020567824
    2.203092092    0.044123003    0.044121310    0.030786514
    2.223111111    0.046751134    0.046747323    0.052186300
    2.243130130    0.053017579    0.053011304    0.103723236
    2.263149149    0.063864991    0.063854931    0.218817788
    2.283168168    0.081960358    0.081943787    0.233973155
    2.303187187    0.113328678    0.113299519    0.113839080
    2.323206206    0.172321938    0.172265127    0.055902485
    2.343225225    0.297615618    0.297488507    0.032067748
    2.363244244    0.602883175    0.602564048    0.020775864
    2.383263263    1.241963336    1.241527233    0.014683193
    2.403282282    1.176479707    1.176914709    0.011059798
    2.423301301    0.557948196    0.558222441    0.008744167
    2.443320320    0.278922331    0.279030528    0.007182569
    2.463339339    0.162809442    0.162857797    0.006086153
    2.483358358    0.107033526    0.107058371    0.005293171
    2.503377377    0.076686210    0.076700427    0.004707886
    2.523396396    0.058595553    0.058604379    0.004271209
    2.543415415    0.047084248    0.047090085    0.003945678
    2.563434434    0.039422148    0.039426213    0.003707418
    2.583453453    0.034181135    0.034184094    0.003541795
    2.603472472    0.030567534    0.030569776    0.003441246
    2.623491491    0.028125287    0.028127055    0.003404684
    2.643510511    0.026595779    0.026597236    0.003438514
    2.663529530    0.025851938    0.025853199    0.003560099
    2.683548549    0.025874633    0.025875789    0.003806126
    2.703567568    0.026763797    0.026764932    0.004252724
    2.723586587    0.028797725    0.028798925    0.005067636
    2.743605606    0.032593227    0.032594597    0.006662022
    2.763624625    0.039531503    0.039533174    0.010184314
    2.783643644    0.053001546    0.053003655    0.018897781
    2.803662663    0.082443683    0.082446195    0.032519481
    2.823681682    0.154753220    0.154756632    0.023728431
    2.843700701    0.270196389    0.270227867    0.012611280
    2.863719720    0.200874845    0.200925691    0.008236783
    2.883738739    0.108389091    0.108411081    0.006651679
    2.903757758    0.073238252    0.073246489    0.006390042
    2.923776777    0.062299899    0.062301652    0.007345611
    2.943795796    0.062866767    0.062863919    0.010550504
    2.963814815    0.072372172    0.072364076    0.014989382
    2.983833834    0.093649189    0.093632470    0.011334525
    3.003852853    0.137096097    0.137061183    0.008027170
    3.023871872    0.233012453    0.232931194    0.007058467
    3.043890891    0.470522177    0.470317722    0.007155407
    3.063909910    0.913925928    0.913728414    0.007942334
    3.083928929    0.748918267    0.749177532    0.009524767
    3.103947948    0.360037856    0.360175593    0.012517622
    3.123966967    0.200102895    0.200163026    0.018757630
    3.143985986    0.143682744    0.143720289    0.031251921
    3.164005005    0.115378891    0.115394606    0.036548967
    3.184024024    0.094194330    0.094196527    0.037056781
    3.204043043    0.094215809    0.094207394    0.054929756
    3.224062062    0.119689613    0.119662185    0.108079791
    3.244081081    0.197740600    0.197665533    0.178146202
    3.264100100    0.381967640    0.381838721    0.114602720
    3.284119119    0.407909481    0.408007690    0.056356960
    3.304138138    0.209457524    0.209537457    0.033312095
    3.324157157    0.112983608    0.113014935    0.023932875
    3.344176176    0.073165453    0.073178763    0.020218195
    3.364195195    0.054931285    0.054937416    0.019611728
    3.384214214    0.046251975    0.046254480    0.021573110
    3.404233233    0.043029716    0.043029653    0.026904175
    3.424252252    0.044430635    0.044427650    0.038623231
    3.444271271    0.052335717    0.052327439    0.065751997
    3.464290290    0.073558882    0.073537698    0.129682030
    3.484309309    0.126049908    0.125998834    0.208044414
    3.504328328    0.184102948    0.184110615    0.140577183
    3.524347347    0.122941157    0.122990380    0.079169868
    3.544366366    0.078941122    0.078956625    0.064170434
    3.564385385    0.069816076    0.069811910    0.081440950
    3.584404404    0.084867066    0.084840054    0.140252131
    3.604423423    0.139215584    0.139141429    0.147786189
    3.624442442    0.224577556    0.224548590    0.082804480
    3.644461461    0.163329097    0.163413188    0.055820036
    3.664480480    0.094983208    0.095017866    0.055027626
    3.684499499    0.072897193    0.072904129    0.079725282
    3.704518519    0.076359349    0.076346227    0.145959083
    3.724537538    0.100788263    0.100763907    0.157683918
    3.744556557    0.109188769    0.109184909    0.096511205
    3.764575576    0.132663126    0.132630220    0.062520114
    3.784594595    0.173724993    0.173707053    0.049711483
    3.804613614    0.133214128    0.133238883    0.059514353
    3.824632633    0.107383946    0.107419549    0.052856896
    3.844651652    0.092970148    0.092986875    0.030394775
    3.864670671    0.098317209    0.098316552    0.019599660
    3.884689690    0.125782634    0.125766977    0.014815649
    3.904708709    0.189783569    0.189740942    0.012505656
    3.924727728    0.342605601    0.342492269    0.011431119
    3.944746747    0.718245336    0.717993384    0.011155508
    3.964765766    1.032958216    1.033112511    0.011574654
    3.984784785    0.584418562    0.584701025    0.012812494
    4.004803804    0.289833452    0.289949504    0.015304552
    4.024822823    0.173991008    0.174038786    0.020173523
    4.044841842    0.127145297    0.127164513    0.030475444
    4.064860861    0.112867433    0.112868725    0.054867848
    4.084879880    0.123121488    0.123107582    0.101450685
    4.104898899    0.154021084    0.153989940    0.118396375
    4.124917918    0.246526231    0.246425708    0.071672548
    4.144936937    0.422934029    0.422849027    0.041712607
    4.164955956    0.330160515    0.330281891    0.031933380
    4.184974975    0.172264499    0.172324534    0.031545840
    4.204993994    0.107604908    0.107628029    0.038707513
    4.225013013    0.083321316    0.083329798    0.058497331
    4.245032032    0.077802485    0.077803719    0.108999352
    4.265051051    0.081955228    0.081951025    0.193910588
    4.285070070    0.103962988    0.103936569    0.157478622
    4.305089089    0.163532820    0.163487783    0.110543112
    4.325108108    0.167633292    0.167686312    0.133219400
    4.345127127    0.105319604    0.105356230    0.234176569
    4.365146146    0.078095673    0.078109581    0.240193685
    4.385165165    0.070352736    0.070357733    0.119565415
    4.405184184    0.071479600    0.071480232    0.061411217
    4.425203203    0.078765455    0.078762820    0.036996696
    4.445222222    0.092867402    0.092860949    0.025179189
    4.465241241    0.117339009    0.117326395    0.018706331
    4.485260260    0.161017214    0.160992337    0.014853925
    4.505279279    0.246367887    0.246314080    0.012456914
    4.525298298    0.437355295    0.437222407    0.010969201
    4.545317317    0.907994892    0.907677292    0.010130851
    4.565336336    1.489176569    1.489216331    0.009844805
    4.585355355    0.949084755    0.949473893    0.010147222
    4.605374374    0.485995737    0.486150404    0.011254648
    4.625393393    0.327481847    0.327519269    0.013737332
    4.645412412    0.325665441    0.325616208    0.018863229
    4.665431431    0.443322723    0.443238198    0.030505286
    4.685450450    0.401679106    0.401744235    0.059942066
    4.705469469    0.315350967    0.315347756    0.100274154
    4.725488488    0.287455564    0.287472224    0.068190511
    4.745507508    0.220876920    0.220906943    0.036852634
    4.765526527    0.192202879    0.192258555    0.022427480
    4.785545546    0.154664209    0.154700654    0.015915604
    4.805564565    0.146333024    0.146344863    0.013259171
    4.825583584    0.168167125    0.168162605    0.012919460
    4.845602603    0.234511985    0.234482155    0.014656118
    4.865621622    0.407031931    0.406942579    0.019629261
    4.885640641    0.714660786    0.714630696    0.032010133
    4.905659660    0.585729616    0.585940561    0.063559181
    4.925678679    0.354129502    0.354224259    0.103250238
    4.945697698    0.306835319    0.306857041    0.066715966
    4.965716717    0.349486717    0.349430076    0.035561128
    4.985735736    0.295707703    0.295636582    0.022578656
    5.005754755    0.260855113    0.260826262    0.015055776
    5.025773774    0.291852727    0.291839536    0.011628595
    5.045792793    0.392581499    0.392567876    0.010374449
    5.065811812    0.629851544    0.629816381    0.010580232
    5.085830831    1.218827295    1.218723927    0.012475198
    5.105849850    2.231298874    2.231333472    0.017574028
    5.125868869    1.805440808    1.805874563    0.030161631
    5.145887888    1.112756846    1.113135059    0.049160797
    5.165906907    0.782216549    0.782425021    0.065270196
    5.185925926    0.727896679    0.727934528    0.053755201
    5.205944945    1.010772034    1.010643125    0.028333265
    5.225963964    1.875908974    1.875561622    0.017949173
    5.245982983    2.407121335    2.407411166    0.015063230
    5.266002002    1.346703526    1.347051835    0.016915959
    5.286021021    0.758225601    0.758343185    0.025899315
    5.306040040    0.590856623    0.590842159    0.048611512
    5.326059059    0.670012142    0.669892387    0.053144978
    5.346078078    0.680247166    0.680334014    0.027702766
    5.366097097    0.468587082    0.468673911    0.015162990
    5.386116116    0.387030281    0.387065676    0.010052392
    5.406135135    0.407039122    0.407052707    0.007705752
    5.426154154    0.525007286    0.525006616    0.006790998
    5.446173173    0.833406033    0.833383209    0.006941161
    5.466192192    1.603469466    1.603412228    0.008554173
    5.486211211    2.425628509    2.425753574    0.013473604
    5.506230230    1.819361883    1.819432808    0.024753277
    5.526249249    1.783049602    1.782901402    0.024768885
    5.546268268    1.586017605    1.586123879    0.012930361
    5.566287287    0.877391556    0.877479533    0.007360507
    5.586306306    0.548795100    0.548827286    0.005021736
    5.606325325    0.423411497    0.423421153    0.003910832
    5.626344344    0.386772887    0.386771013    0.003278561
    5.646363363    0.406278723    0.406267416    0.002813879
    5.666382382    0.485472000    0.485447958    0.002513358
    5.686401401    0.664140683    0.664092020    0.002314750
    5.706420420    1.065960127    1.065850760    0.002178168
    5.726439439    2.060726011    2.060454638    0.002084474
    5.746458458    4.039435772    4.039146121    0.002024661
    5.766477477    3.640028755    3.640424356    0.001996331
    5.786496496    1.899838558    1.900071287    0.002004368
    5.806515516    1.083661815    1.083737111    0.002067758
    5.826534535    0.796637831    0.796611539    0.002239287
    5.846553554    0.798799967    0.798655163    0.002540382
    5.866572573    1.086359597    1.086039786    0.002805495
    5.886591592    1.156474713    1.156352342    0.003614518
    5.906610611    0.834220473    0.834204894    0.005348570
    5.926629630    0.765459460    0.765465678    0.004872062
    5.946648649    0.924995394    0.925043303    0.003365999
    5.966667668    1.395235575    1.395389587    0.002797167
    5.986686687    2.600879017    2.601333984    0.002676527
    6.006705706    5.328360050    5.329027340    0.002781757
    6.026724725    5.714289676    5.712922096    0.003075957
    6.046743744    2.889701157    2.888774125    0.003622301
    6.066762763    1.563502896    1.563134152    0.004620175
    6.086781782    1.097918953    1.097793804    0.006602034
    6.106800801    1.049645740    1.049714517    0.010734137
    6.126819820    1.277412199    1.277626420    0.016564691
    6.146838839    1.227228862    1.227218487    0.028314425
    6.166857858    1.323446763    1.323262615    0.042627524
    6.186876877    2.102398458    2.101964978    0.026111393
    6.206895896    4.120345014    4.119382738    0.013115500
    6.226914915    4.615493416    4.614358603    0.007940765
    6.246933934    2.343475928    2.342906150    0.005748365
    6.266952953    1.201283767    1.201002910    0.004786791
    6.286971972    0.735714457    0.735548711    0.004477739
    6.306990991    0.523542542    0.523426910    0.004666703
    6.327010010    0.422459099    0.422364575    0.005451150
    6.347029029    0.385092458    0.385000591    0.007285973
    6.367048048    0.403580615    0.403470695    0.011551109
    6.387067067    0.506589830    0.506420603    0.022325951
    6.407086086    0.804247853    0.803910636    0.041963926
    6.427105105    1.493198613    1.492618003    0.033410865
    6.447124124    1.570928747    1.570903001    0.016131595
    6.467143143    0.864146765    0.864185922    0.008816233
    6.487162162    0.547350511    0.547326485    0.005691748
    6.507181181    0.457179502    0.457126764    0.004150479
