# energy grid [eV]     ieps_x  ieps_y  ieps_z
#
    0.001000000    7.967189771    7.967411024    1.727648706
    0.021019019    7.960530865    7.960751567    1.727560262
    0.041038038    7.947623640    7.947843270    1.727388690
    0.061057057    7.930171194    7.930389375    1.727156390
    0.081076076    7.908320229    7.908536597    1.726865031
    0.101095095    7.882208364    7.882422575    1.726516100
    0.121114114    7.851994685    7.852206411    1.726111307
    0.141133133    7.817858736    7.818067672    1.725652588
    0.161152152    7.779998052    7.780203917    1.725142070
    0.181171171    7.738625337    7.738827871    1.724582052
    0.201190190    7.693965504    7.694164476    1.723974965
    0.221209209    7.646252700    7.646447903    1.723323348
    0.241228228    7.595727370    7.595918625    1.722629812
    0.261247247    7.542633439    7.542820592    1.721897015
    0.281266266    7.487215653    7.487398577    1.721127630
    0.301285285    7.429717132    7.429895725    1.720324322
    0.321304304    7.370377150    7.370551333    1.719489723
    0.341323323    7.309429183    7.309598902    1.718626414
    0.361342342    7.247099219    7.247264439    1.717736905
    0.381361361    7.183604338    7.183765048    1.716823618
    0.401380380    7.119151573    7.119307775    1.715888881
    0.421399399    7.053937009    7.054088726    1.714934910
    0.441418418    6.988145141    6.988292411    1.713963809
    0.461437437    6.921948447    6.922091318    1.712977563
    0.481456456    6.855507156    6.855645693    1.711978032
    0.501475475    6.788969210    6.789103485    1.710966955
    0.521494494    6.722470363    6.722600458    1.709945947
    0.541513514    6.656134421    6.656260425    1.708916503
    0.561532533    6.590073587    6.590195597    1.707880001
    0.581551552    6.524388895    6.524507011    1.706837704
    0.601570571    6.459170710    6.459285037    1.705790769
    0.621589590    6.394499277    6.394609923    1.704740247
    0.641608609    6.330445307    6.330552382    1.703687093
    0.661627628    6.267070582    6.267174198    1.702632170
    0.681646647    6.204428570    6.204528839    1.701576254
    0.701665666    6.142565038    6.142662070    1.700520041
    0.721684685    6.081518652    6.081612561    1.699464156
    0.741703704    6.021321573    6.021412467    1.698409152
    0.761722723    5.962000018    5.962088006    1.697355520
    0.781741742    5.903574804    5.903659994    1.696303696
    0.801760761    5.846061865    5.846144361    1.695254061
    0.821779780    5.789472737    5.789552642    1.694206950
    0.841798799    5.733815012    5.733892427    1.693162652
    0.861817818    5.679092764    5.679167785    1.692121421
    0.881836837    5.625306941    5.625379663    1.691083472
    0.901855856    5.572455730    5.572526244    1.690048991
    0.921874875    5.520534890    5.520603285    1.689018133
    0.941893894    5.469538059    5.469604421    1.687991030
    0.961912913    5.419457032    5.419521444    1.686967789
    0.981931932    5.370282016    5.370344559    1.685948499
    1.001950951    5.322001859    5.322062609    1.684933229
    1.021969970    5.274604258    5.274663290    1.683922032
    1.041988989    5.228075945    5.228133330    1.682914950
    1.062008008    5.182402857    5.182458664    1.681912008
    1.082027027    5.137570282    5.137624576    1.680913223
    1.102046046    5.093562995    5.093615840    1.679918602
    1.122065065    5.050365377    5.050416835    1.678928142
    1.142084084    5.007961520    5.008011648    1.677941834
    1.162103103    4.966335316    4.966384170    1.676959662
    1.182122122    4.925470544    4.925518179    1.675981606
    1.202141141    4.885350939    4.885397405    1.675007637
    1.222160160    4.845960251    4.846005599    1.674037727
    1.242179179    4.807282306    4.807326581    1.673071841
    1.262198198    4.769301043    4.769344292    1.672109941
    1.282217217    4.732000563    4.732042829    1.671151988
    1.302236236    4.695365157    4.695406482    1.670197940
    1.322255255    4.659379338    4.659419760    1.669247753
    1.342274274    4.624027861    4.624067420    1.668301382
    1.362293293    4.589295747    4.589334479    1.667358779
    1.382312312    4.555168297    4.555206236    1.666419897
    1.402331331    4.521631103    4.521668283    1.665484688
    1.422350350    4.488670063    4.488706516    1.664553101
    1.442369369    4.456271381    4.456307137    1.663625089
    1.462388388    4.424421579    4.424456668    1.662700599
    1.482407407    4.393107496    4.393141947    1.661779583
    1.502426426    4.362316293    4.362350132    1.660861990
    1.522445445    4.332035449    4.332068701    1.659947770
    1.542464464    4.302252762    4.302285452    1.659036872
    1.562483483    4.272956346    4.272988499    1.658129246
    1.582502503    4.244134631    4.244166268    1.657224842
    1.602521522    4.215776353    4.215807496    1.656323612
    1.622540541    4.187870555    4.187901226    1.655425504
    1.642559560    4.160406579    4.160436797    1.654530472
    1.662578579    4.133374061    4.133403845    1.653638464
    1.682597598    4.106762926    4.106792295    1.652749435
    1.702616617    4.080563380    4.080592351    1.651863335
    1.722635636    4.054765905    4.054794494    1.650980118
    1.742654655    4.029361251    4.029389476    1.650099736
    1.762673674    4.004340432    4.004368308    1.649222144
    1.782692693    3.979694717    3.979722257    1.648347295
    1.802711712    3.955415622    3.955442842    1.647475144
    1.822730731    3.931494906    3.931521819    1.646605646
    1.842749750    3.907924564    3.907951184    1.645738757
    1.862768769    3.884696819    3.884723157    1.644874433
    1.882787788    3.861804115    3.861830184    1.644012631
    1.902806807    3.839239112    3.839264923    1.643153308
    1.922825826    3.816994678    3.817020243    1.642296422
    1.942844845    3.795063885    3.795089214    1.641441931
    1.962863864    3.773440000    3.773465104    1.640589794
    1.982882883    3.752116482    3.752141370    1.639739972
    2.002901902    3.731086972    3.731111653    1.638892422
    2.022920921    3.710345291    3.710369776    1.638047108
    2.042939940    3.689885435    3.689909731    1.637203988
    2.062958959    3.669701564    3.669725680    1.636363026
    2.082977978    3.649788002    3.649811946    1.635524182
    2.102996997    3.630139230    3.630163010    1.634687421
    2.123016016    3.610749882    3.610773505    1.633852705
    2.143035035    3.591614738    3.591638211    1.633019998
    2.163054054    3.572728721    3.572752051    1.632189264
    2.183073073    3.554086892    3.554110086    1.631360469
    2.203092092    3.535684445    3.535707509    1.630533577
    2.223111111    3.517516704    3.517539644    1.629708554
    2.243130130    3.499579117    3.499601939    1.628885368
    2.263149149    3.481867256    3.481889966    1.628063984
    2.283168168    3.464376807    3.464399409    1.627244371
    2.303187187    3.447103570    3.447126071    1.626426496
    2.323206206    3.430043457    3.430065861    1.625610328
    2.343225225    3.413192484    3.413214796    1.624795835
    2.363244244    3.396546771    3.396568996    1.623982988
    2.383263263    3.380102538    3.380124680    1.623171756
    2.403282282    3.363856102    3.363878165    1.622362110
    2.423301301    3.347803871    3.347825860    1.621554020
    2.443320320    3.331942347    3.331964265    1.620747458
    2.463339339    3.316268117    3.316289969    1.619942396
    2.483358358    3.300777856    3.300799644    1.619138806
    2.503377377    3.285468317    3.285490046    1.618336662
    2.523396396    3.270336337    3.270358009    1.617535935
    2.543415415    3.255378828    3.255400448    1.616736601
    2.563434434    3.240592778    3.240614348    1.615938633
    2.583453453    3.225975247    3.225996770    1.615142005
    2.603472472    3.211523366    3.211544845    1.614346694
    2.623491491    3.197234334    3.197255772    1.613552674
    2.643510511    3.183105416    3.183126816    1.612759921
    2.663529530    3.169133942    3.169155306    1.611968412
    2.683548549    3.155317304    3.155338634    1.611178123
    2.703567568    3.141652953    3.141674252    1.610389032
    2.723586587    3.128138401    3.128159671    1.609601116
    2.743605606    3.114771215    3.114792459    1.608814354
    2.763624625    3.101549020    3.101570239    1.608028723
    2.783643644    3.088469490    3.088490687    1.607244203
    2.803662663    3.075530356    3.075551533    1.606460772
    2.823681682    3.062729397    3.062750554    1.605678410
    2.843700701    3.050064440    3.050085581    1.604897098
    2.863719720    3.037533362    3.037554488    1.604116816
    2.883738739    3.025134086    3.025155198    1.603337543
    2.903757758    3.012864579    3.012885679    1.602559262
    2.923776777    3.000722852    3.000743942    1.601781954
    2.943795796    2.988706958    2.988728039    1.601005601
    2.963814815    2.976814993    2.976836067    1.600230184
    2.983833834    2.965045093    2.965066160    1.599455687
    3.003852853    2.953395430    2.953416493    1.598682091
    3.023871872    2.941864218    2.941885277    1.597909381
    3.043890891    2.930449705    2.930470762    1.597137540
    3.063909910    2.919150177    2.919171232    1.596366552
    3.083928929    2.907963954    2.907985009    1.595596400
    3.103947948    2.896889389    2.896910445    1.594827070
    3.123966967    2.885924870    2.885945928    1.594058546
    3.143985986    2.875068817    2.875089878    1.593290813
    3.164005005    2.864319681    2.864340745    1.592523857
    3.184024024    2.853675942    2.853697010    1.591757663
    3.204043043    2.843136112    2.843157186    1.590992218
    3.224062062    2.832698731    2.832719811    1.590227508
    3.244081081    2.822362368    2.822383455    1.589463519
    3.264100100    2.812125618    2.812146713    1.588700239
    3.284119119    2.801987105    2.802008208    1.587937654
    3.304138138    2.791945477    2.791966589    1.587175752
    3.324157157    2.781999409    2.782020530    1.586414522
    3.344176176    2.772147599    2.772168731    1.585653949
    3.364195195    2.762388772    2.762409914    1.584894024
    3.384214214    2.752721674    2.752742828    1.584134735
    3.404233233    2.743145076    2.743166242    1.583376070
    3.424252252    2.733657771    2.733678948    1.582618019
    3.444271271    2.724258572    2.724279762    1.581860570
    3.464290290    2.714946315    2.714967519    1.581103714
    3.484309309    2.705719859    2.705741076    1.580347440
    3.504328328    2.696578079    2.696599310    1.579591739
    3.524347347    2.687519873    2.687541118    1.578836600
    3.544366366    2.678544157    2.678565417    1.578082014
    3.564385385    2.669649868    2.669671143    1.577327971
    3.584404404    2.660835959    2.660857249    1.576574464
    3.604423423    2.652101402    2.652122708    1.575821483
    3.624442442    2.643445188    2.643466509    1.575069019
    3.644461461    2.634866323    2.634887660    1.574317064
    3.664480480    2.626363831    2.626385185    1.573565610
    3.684499499    2.617936754    2.617958124    1.572814649
    3.704518519    2.609584148    2.609605535    1.572064173
    3.724537538    2.601305085    2.601326489    1.571314175
    3.744556557    2.593098654    2.593120074    1.570564648
    3.764575576    2.584963957    2.584985395    1.569815583
    3.784594595    2.576900113    2.576921567    1.569066975
    3.804613614    2.568906252    2.568927724    1.568318817
    3.824632633    2.560981523    2.561003013    1.567571102
    3.844651652    2.553125085    2.553146592    1.566823824
    3.864670671    2.545336111    2.545357636    1.566076976
    3.884689690    2.537613790    2.537635332    1.565330553
    3.904708709    2.529957320    2.529978880    1.564584548
    3.924727728    2.522365914    2.522387492    1.563838957
    3.944746747    2.514838797    2.514860393    1.563093773
    3.964765766    2.507375207    2.507396820    1.562348992
    3.984784785    2.499974392    2.499996023    1.561604607
    4.004803804    2.492635613    2.492657262    1.560860616
    4.024822823    2.485358143    2.485379810    1.560117011
    4.044841842    2.478141264    2.478162949    1.559373790
    4.064860861    2.470984272    2.471005975    1.558630946
    4.084879880    2.463886470    2.463908191    1.557888477
    4.104898899    2.456847176    2.456868914    1.557146378
    4.124917918    2.449865714    2.449887470    1.556404644
    4.144936937    2.442941420    2.442963194    1.555663273
    4.164955956    2.436073642    2.436095434    1.554922259
    4.184974975    2.429261734    2.429283543    1.554181601
    4.204993994    2.422505062    2.422526888    1.553441293
    4.225013013    2.415803000    2.415824844    1.552701334
    4.245032032    2.409154932    2.409176793    1.551961719
    4.265051051    2.402560251    2.402582129    1.551222446
    4.285070070    2.396018358    2.396040254    1.550483511
    4.305089089    2.389528664    2.389550577    1.549744913
    4.325108108    2.383090588    2.383112518    1.549006647
    4.345127127    2.376703557    2.376725503    1.548268713
    4.365146146    2.370367005    2.370388968    1.547531107
    4.385165165    2.364080377    2.364102356    1.546793828
    4.405184184    2.357843123    2.357865119    1.546056872
    4.425203203    2.351654703    2.351676715    1.545320238
    4.445222222    2.345514583    2.345536612    1.544583924
    4.465241241    2.339422238    2.339444282    1.543847929
    4.485260260    2.333377148    2.333399208    1.543112250
    4.505279279    2.327378802    2.327400878    1.542376886
    4.525298298    2.321426697    2.321448788    1.541641836
    4.545317317    2.315520333    2.315542440    1.540907097
    4.565336336    2.309659222    2.309681344    1.540172670
    4.585355355    2.303842879    2.303865017    1.539438552
    4.605374374    2.298070827    2.298092979    1.538704743
    4.625393393    2.292342595    2.292364762    1.537971241
    4.645412412    2.286657719    2.286679901    1.537238047
    4.665431431    2.281015741    2.281037937    1.536505158
    4.685450450    2.275416208    2.275438418    1.535772574
    4.705469469    2.269858674    2.269880899    1.535040296
    4.725488488    2.264342701    2.264364939    1.534308321
    4.745507508    2.258867852    2.258890104    1.533576651
    4.765526527    2.253433701    2.253455967    1.532845284
    4.785545546    2.248039824    2.248062103    1.532114221
    4.805564565    2.242685804    2.242708096    1.531383460
    4.825583584    2.237371229    2.237393534    1.530653003
    4.845602603    2.232095693    2.232118011    1.529922849
    4.865621622    2.226858795    2.226881126    1.529192998
    4.885640641    2.221660139    2.221682482    1.528463451
    4.905659660    2.216499334    2.216521689    1.527734207
    4.925678679    2.211375994    2.211398361    1.527005268
    4.945697698    2.206289738    2.206312118    1.526276632
    4.965716717    2.201240192    2.201262582    1.525548302
    4.985735736    2.196226982    2.196249385    1.524820277
    5.005754755    2.191249744    2.191272157    1.524092559
    5.025773774    2.186308115    2.186330539    1.523365147
    5.045792793    2.181401738    2.181424173    1.522638042
    5.065811812    2.176530260    2.176552706    1.521911246
    5.085830831    2.171693333    2.171715790    1.521184759
    5.105849850    2.166890613    2.166913080    1.520458583
    5.125868869    2.162121761    2.162144238    1.519732718
    5.145887888    2.157386441    2.157408928    1.519007165
    5.165906907    2.152684322    2.152706819    1.518281925
    5.185925926    2.148015077    2.148037583    1.517557000
    5.205944945    2.143378382    2.143400897    1.516832391
    5.225963964    2.138773919    2.138796443    1.516108099
    5.245982983    2.134201372    2.134223905    1.515384125
    5.266002002    2.129660429    2.129682971    1.514660472
    5.286021021    2.125150785    2.125173335    1.513937140
    5.306040040    2.120672134    2.120694692    1.513214131
    5.326059059    2.116224176    2.116246743    1.512491446
    5.346078078    2.111806615    2.111829190    1.511769088
    5.366097097    2.107419159    2.107441741    1.511047057
    5.386116116    2.103061517    2.103084106    1.510325356
    5.406135135    2.098733403    2.098756000    1.509603986
    5.426154154    2.094434536    2.094457140    1.508882949
    5.446173173    2.090164636    2.090187247    1.508162247
    5.466192192    2.085923427    2.085946045    1.507441882
    5.486211211    2.081710637    2.081733261    1.506721856
    5.506230230    2.077525996    2.077548627    1.506002170
    5.526249249    2.073369239    2.073391875    1.505282827
    5.546268268    2.069240102    2.069262744    1.504563829
    5.566287287    2.065138326    2.065160973    1.503845177
    5.586306306    2.061063653    2.061086306    1.503126875
    5.606325325    2.057015830    2.057038488    1.502408924
    5.626344344    2.052994606    2.053017269    1.501691326
    5.646363363    2.048999732    2.049022400    1.500974084
    5.666382382    2.045030965    2.045053638    1.500257199
    5.686401401    2.041088061    2.041110739    1.499540675
    5.706420420    2.037170782    2.037193463    1.498824513
    5.726439439    2.033278890    2.033301576    1.498108716
    5.746458458    2.029412152    2.029434841    1.497393286
    5.766477477    2.025570336    2.025593029    1.496678226
    5.786496496    2.021753214    2.021775911    1.495963538
    5.806515516    2.017960560    2.017983260    1.495249224
    5.826534535    2.014192150    2.014214853    1.494535287
    5.846553554    2.010447764    2.010470469    1.493821730
    5.866572573    2.006727182    2.006749891    1.493108555
    5.886591592    2.003030190    2.003052901    1.492395765
    5.906610611    1.999356574    1.999379287    1.491683362
    5.926629630    1.995706122    1.995728837    1.490971349
    5.946648649    1.992078626    1.992101344    1.490259728
    5.966667668    1.988473880    1.988496599    1.489548503
    5.986686687    1.984891680    1.984914400    1.488837675
    6.006705706    1.981331824    1.981354545    1.488127248
    6.026724725    1.977794112    1.977816834    1.487417224
    6.046743744    1.974278347    1.974301070    1.486707606
    6.066762763    1.970784334    1.970807058    1.485998397
    6.086781782    1.967311880    1.967334605    1.485289600
    6.106800801    1.963860795    1.963883520    1.484581217
    6.126819820    1.960430889    1.960453615    1.483873250
    6.146838839    1.957021976    1.957044702    1.483165704
    6.166857858    1.953633872    1.953656598    1.482458581
    6.186876877    1.950266394    1.950289120    1.481751883
    6.206895896    1.946919362    1.946942087    1.481045614
    6.226914915    1.943592596    1.943615320    1.480339776
    6.246933934    1.940285921    1.940308644    1.479634372
    6.266952953    1.936999161    1.937021883    1.478929405
    6.286971972    1.933732144    1.933754865    1.478224878
    6.306990991    1.930484699    1.930507419    1.477520795
    6.327010010    1.927256657    1.927279375    1.476817157
    6.347029029    1.924047850    1.924070567    1.476113967
    6.367048048    1.920858114    1.920880828    1.475411230
    6.387067067    1.917687284    1.917709996    1.474708947
    6.407086086    1.914535198    1.914557909    1.474007121
    6.427105105    1.911401697    1.911424405    1.473305757
    6.447124124    1.908286622    1.908309328    1.472604855
    6.467143143    1.905189816    1.905212519    1.471904421
    6.487162162    1.902111125    1.902133824    1.471204455
    6.507181181    1.899050393    1.899073090    1.470504962
    6.527200200    1.896007471    1.896030165    1.469805945
