# energy grid [eV]     epsr_x  epsr_y  epsr_z
# plasmon frequences [eV]:    11.113107652   11.113477898    9.349077768
    0.000000000    2.238357655    2.238389459    1.634335369
    0.020020020    2.238367881    2.238399685    1.634337727
    0.040040040    2.238398559    2.238430363    1.634344800
    0.060060060    2.238449695    2.238481499    1.634356589
    0.080080080    2.238521295    2.238553099    1.634373095
    0.100100100    2.238613370    2.238645174    1.634394320
    0.120120120    2.238725933    2.238757737    1.634420264
    0.140140140    2.238859000    2.238890804    1.634450929
    0.160160160    2.239012591    2.239044394    1.634486318
    0.180180180    2.239186726    2.239218529    1.634526433
    0.200200200    2.239381431    2.239413234    1.634571276
    0.220220220    2.239596735    2.239628537    1.634620852
    0.240240240    2.239832667    2.239864469    1.634675164
    0.260260260    2.240089262    2.240121064    1.634734214
    0.280280280    2.240366557    2.240398359    1.634798009
    0.300300300    2.240664592    2.240696393    1.634866552
    0.320320320    2.240983410    2.241015210    1.634939847
    0.340340340    2.241323056    2.241354856    1.635017901
    0.360360360    2.241683580    2.241715380    1.635100719
    0.380380380    2.242065035    2.242096833    1.635188306
    0.400400400    2.242467474    2.242499273    1.635280669
    0.420420420    2.242890958    2.242922756    1.635377815
    0.440440440    2.243335548    2.243367345    1.635479750
    0.460460460    2.243801308    2.243833104    1.635586482
    0.480480480    2.244288306    2.244320102    1.635698018
    0.500500501    2.244796614    2.244828409    1.635814367
    0.520520521    2.245326307    2.245358101    1.635935537
    0.540540541    2.245877462    2.245909255    1.636061537
    0.560560561    2.246450160    2.246481952    1.636192375
    0.580580581    2.247044487    2.247076278    1.636328061
    0.600600601    2.247660529    2.247692319    1.636468606
    0.620620621    2.248298379    2.248330168    1.636614018
    0.640640641    2.248958131    2.248989920    1.636764310
    0.660660661    2.249639885    2.249671672    1.636919491
    0.680680681    2.250343741    2.250375527    1.637079574
    0.700700701    2.251069806    2.251101590    1.637244570
    0.720720721    2.251818188    2.251849972    1.637414490
    0.740740741    2.252589001    2.252620784    1.637589349
    0.760760761    2.253382362    2.253414143    1.637769158
    0.780780781    2.254198391    2.254230171    1.637953931
    0.800800801    2.255037213    2.255068991    1.638143682
    0.820820821    2.255898955    2.255930732    1.638338425
    0.840840841    2.256783751    2.256815526    1.638538174
    0.860860861    2.257691736    2.257723509    1.638742944
    0.880880881    2.258623051    2.258654823    1.638952752
    0.900900901    2.259577840    2.259609610    1.639167612
    0.920920921    2.260556253    2.260588021    1.639387541
    0.940940941    2.261558442    2.261590208    1.639612556
    0.960960961    2.262584564    2.262616328    1.639842674
    0.980980981    2.263634782    2.263666544    1.640077912
    1.001001001    2.264709262    2.264741022    1.640318289
    1.021021021    2.265808175    2.265839933    1.640563824
    1.041041041    2.266931696    2.266963452    1.640814534
    1.061061061    2.268080006    2.268111760    1.641070440
    1.081081081    2.269253290    2.269285041    1.641331562
    1.101101101    2.270451738    2.270483487    1.641597920
    1.121121121    2.271675545    2.271707292    1.641869536
    1.141141141    2.272924912    2.272956656    1.642146430
    1.161161161    2.274200043    2.274231784    1.642428624
    1.181181181    2.275501150    2.275532888    1.642716142
    1.201201201    2.276828449    2.276860184    1.643009005
    1.221221221    2.278182161    2.278213893    1.643307239
    1.241241241    2.279562513    2.279594242    1.643610866
    1.261261261    2.280969739    2.281001465    1.643919912
    1.281281281    2.282404078    2.282435801    1.644234402
    1.301301301    2.283865774    2.283897493    1.644554361
    1.321321321    2.285355078    2.285386794    1.644879816
    1.341341341    2.286872248    2.286903960    1.645210794
    1.361361361    2.288417547    2.288449255    1.645547323
    1.381381381    2.289991245    2.290022950    1.645889430
    1.401401401    2.291593619    2.291625321    1.646237145
    1.421421421    2.293224954    2.293256651    1.646590497
    1.441441441    2.294885538    2.294917231    1.646949516
    1.461461461    2.296575671    2.296607359    1.647314233
    1.481481481    2.298295656    2.298327340    1.647684679
    1.501501502    2.300045807    2.300077487    1.648060887
    1.521521522    2.301826444    2.301858118    1.648442889
    1.541541542    2.303637894    2.303669564    1.648830719
    1.561561562    2.305480493    2.305512158    1.649224411
    1.581581582    2.307354586    2.307386246    1.649624000
    1.601601602    2.309260526    2.309292181    1.650029522
    1.621621622    2.311198673    2.311230322    1.650441013
    1.641641642    2.313169397    2.313201041    1.650858512
    1.661661662    2.315173078    2.315204716    1.651282055
    1.681681682    2.317210103    2.317241735    1.651711681
    1.701701702    2.319280872    2.319312497    1.652147432
    1.721721722    2.321385791    2.321417410    1.652589347
    1.741741742    2.323525278    2.323556891    1.653037467
    1.761761762    2.325699761    2.325731367    1.653491836
    1.781781782    2.327909679    2.327941278    1.653952497
    1.801801802    2.330155481    2.330187073    1.654419493
    1.821821822    2.332437628    2.332469213    1.654892871
    1.841841842    2.334756592    2.334788169    1.655372676
    1.861861862    2.337112856    2.337144426    1.655858955
    1.881881882    2.339506918    2.339538479    1.656351758
    1.901901902    2.341939284    2.341970838    1.656851132
    1.921921922    2.344410476    2.344442022    1.657357130
    1.941941942    2.346921030    2.346952566    1.657869801
    1.961961962    2.349471492    2.349503019    1.658389199
    1.981981982    2.352062424    2.352093943    1.658915378
    2.002002002    2.354694403    2.354725912    1.659448393
    2.022022022    2.357368019    2.357399519    1.659988299
    2.042042042    2.360083880    2.360115369    1.660535155
    2.062062062    2.362842606    2.362874085    1.661089020
    2.082082082    2.365644836    2.365676305    1.661649952
    2.102102102    2.368491224    2.368522682    1.662218015
    2.122122122    2.371382443    2.371413890    1.662793270
    2.142142142    2.374319182    2.374350617    1.663375782
    2.162162162    2.377302148    2.377333572    1.663965617
    2.182182182    2.380332069    2.380363480    1.664562842
    2.202202202    2.383409690    2.383441089    1.665167527
    2.222222222    2.386535778    2.386567164    1.665779741
    2.242242242    2.389711120    2.389742492    1.666399557
    2.262262262    2.392936523    2.392967882    1.667027048
    2.282282282    2.396212818    2.396244163    1.667662291
    2.302302302    2.399540858    2.399572189    1.668305362
    2.322322322    2.402921521    2.402952837    1.668956341
    2.342342342    2.406355707    2.406387008    1.669615310
    2.362362362    2.409844343    2.409875628    1.670282351
    2.382382382    2.413388382    2.413419650    1.670957549
    2.402402402    2.416988802    2.417020054    1.671640992
    2.422422422    2.420646613    2.420677848    1.672332770
    2.442442442    2.424362849    2.424394067    1.673032974
    2.462462462    2.428138579    2.428169779    1.673741698
    2.482482482    2.431974899    2.432006080    1.674459039
    2.502502503    2.435872940    2.435904102    1.675185095
    2.522522523    2.439833865    2.439865007    1.675919969
    2.542542543    2.443858872    2.443889994    1.676663763
    2.562562563    2.447949195    2.447980296    1.677416586
    2.582582583    2.452106105    2.452137185    1.678178547
    2.602602603    2.456330912    2.456361970    1.678949757
    2.622622623    2.460624967    2.460656002    1.679730334
    2.642642643    2.464989661    2.465020674    1.680520396
    2.662662663    2.469426431    2.469457420    1.681320064
    2.682682683    2.473936757    2.473967720    1.682129465
    2.702702703    2.478522166    2.478553104    1.682948726
    2.722722723    2.483184235    2.483215147    1.683777982
    2.742742743    2.487924592    2.487955477    1.684617367
    2.762762763    2.492744917    2.492775774    1.685467023
    2.782782783    2.497646945    2.497677774    1.686327093
    2.802802803    2.502632469    2.502663269    1.687197726
    2.822822823    2.507703344    2.507734114    1.688079075
    2.842842843    2.512861483    2.512892222    1.688971297
    2.862862863    2.518108869    2.518139576    1.689874555
    2.882882883    2.523447549    2.523478224    1.690789016
    2.902902903    2.528879645    2.528910286    1.691714851
    2.922922923    2.534407350    2.534437956    1.692652240
    2.942942943    2.540032937    2.540063507    1.693601364
    2.962962963    2.545758759    2.545789292    1.694562414
    2.982982983    2.551587255    2.551617750    1.695535585
    3.003003003    2.557520952    2.557551407    1.696521077
    3.023023023    2.563562471    2.563592886    1.697519100
    3.043043043    2.569714530    2.569744903    1.698529868
    3.063063063    2.575979950    2.576010281    1.699553605
    3.083083083    2.582361661    2.582391948    1.700590540
    3.103103103    2.588862703    2.588892944    1.701640911
    3.123123123    2.595486237    2.595516431    1.702704964
    3.143143143    2.602235548    2.602265693    1.703782956
    3.163163163    2.609114050    2.609144146    1.704875150
    3.183183183    2.616125299    2.616155343    1.705981820
    3.203203203    2.623272992    2.623302983    1.707103250
    3.223223223    2.630560983    2.630590919    1.708239736
    3.243243243    2.637993284    2.638023164    1.709391582
    3.263263263    2.645574079    2.645603901    1.710559107
    3.283283283    2.653307733    2.653337494    1.711742641
    3.303303303    2.661198798    2.661228498    1.712942527
    3.323323323    2.669252030    2.669281666    1.714159122
    3.343343343    2.677472397    2.677501966    1.715392797
    3.363363363    2.685865089    2.685894590    1.716643938
    3.383383383    2.694435541    2.694464971    1.717912950
    3.403403403    2.703189436    2.703218794    1.719200253
    3.423423423    2.712132730    2.712162012    1.720506284
    3.443443443    2.721271662    2.721300866    1.721831501
    3.463463463    2.730612777    2.730641901    1.723176382
    3.483483483    2.740162945    2.740191986    1.724541427
    3.503503504    2.749929381    2.749958335    1.725927159
    3.523523524    2.759919669    2.759948533    1.727334124
    3.543543544    2.770141786    2.770170558    1.728762897
    3.563563564    2.780604131    2.780632808    1.730214079
    3.583583584    2.791315557    2.791344135    1.731688299
    3.603603604    2.802285398    2.802313873    1.733186221
    3.623623624    2.813523508    2.813551877    1.734708541
    3.643643644    2.825040301    2.825068560    1.736255991
    3.663663664    2.836846791    2.836874935    1.737829343
    3.683683684    2.848954640    2.848982666    1.739429410
    3.703703704    2.861376209    2.861404112    1.741057049
    3.723723724    2.874124617    2.874152392    1.742713168
    3.743743744    2.887213799    2.887241441    1.744398722
    3.763763764    2.900658579    2.900686084    1.746114728
    3.783783784    2.914474748    2.914502109    1.747862258
    3.803803804    2.928679144    2.928706356    1.749642453
    3.823823824    2.943289752    2.943316808    1.751456524
    3.843843844    2.958325808    2.958352702    1.753305758
    3.863863864    2.973807918    2.973834645    1.755191526
    3.883883884    2.989758194    2.989784745    1.757115292
    3.903903904    3.006200399    3.006226767    1.759078618
    3.923923924    3.023160124    3.023186301    1.761083174
    3.943943944    3.040664972    3.040690949    1.763130750
    3.963963964    3.058744783    3.058770552    1.765223269
    3.983983984    3.077431884    3.077457435    1.767362795
    4.004004004    3.096761368    3.096786690    1.769551553
    4.024024024    3.116771428    3.116796511    1.771791941
    4.044044044    3.137503735    3.137528567    1.774086555
    4.064064064    3.159003877    3.159028446    1.776438205
    4.084084084    3.181321871    3.181346163    1.778849944
    4.104104104    3.204512761    3.204536762    1.781325092
    4.124124124    3.228637327    3.228661021    1.783867273
    4.144144144    3.253762917    3.253786288    1.786480451
    4.164164164    3.279964446    3.279987475    1.789168971
    4.184184184    3.307325583    3.307348251    1.791937616
    4.204204204    3.335940196    3.335962482    1.794791660
    4.224224224    3.365914104    3.365935983    1.797736943
    4.244244244    3.397367221    3.397388668    1.800779949
    4.264264264    3.430436219    3.430457204    1.803927910
    4.284284284    3.465277845    3.465298337    1.807188917
    4.304304304    3.502073113    3.502093078    1.810572066
    4.324324324    3.541032654    3.541052051    1.814087627
    4.344344344    3.582403628    3.582422412    1.817747253
    4.364364364    3.626478776    3.626496897    1.821564232
    4.384384384    3.673608465    3.673625862    1.825553809
    4.404404404    3.724216950    3.724233555    1.829733577
    4.424424424    3.778824773    3.778840505    1.834123977
    4.444444444    3.838080203    3.838094965    1.838748934
    4.464464464    3.902804389    3.902818064    1.843636672
    4.484484484    3.974057845    3.974070283    1.848820787
    4.504504505    4.053241076    4.053252091    1.854341656
    4.524524525    4.142251669    4.142261014    1.860248330
    4.544544545    4.243737811    4.243745153    1.866601127
    4.564564565    4.361521918    4.361526786    1.873475222
    4.584584585    4.501330962    4.501332666    1.880965754
    4.604604605    4.672070621    4.672068105    1.889195219
    4.624624625    4.887889715    4.887881330    1.898324500
    4.644644645    5.169731341    5.169714785    1.908569734
    4.664664665    5.527669231    5.527644711    1.920228932
    4.684684685    5.743747118    5.743750902    1.933724987
    4.704704705    4.673050142    4.673186509    1.949677530
    4.724724725    3.788140698    3.788224152    1.969039856
    4.744744745    3.650995788    3.650959400    1.993306993
    4.764764765    3.735193061    3.735237504    2.024805773
    4.784784785    4.197921816    4.197994170    2.066295836
    4.804804805    4.671005294    4.671066352    2.111433707
    4.824824825    4.737933912    4.737845024    2.072781079
    4.844844845    4.258537426    4.258437336    1.914357675
    4.864864865    4.550039796    4.550007193    1.931685341
    4.884884885    4.800592577    4.800465430    1.937936470
    4.904904905    4.350064094    4.349861416    1.781145622
    4.924924925    4.622865982    4.622704333    1.774114525
    4.944944945    5.328471923    5.328271155    1.845013467
    4.964964965    6.186866757    6.186602719    1.922420607
    4.984984985    7.098369583    7.098143744    1.992107596
    5.005005005    6.857241323    6.857687522    1.949758641
    5.025025025    4.179445403    4.180285055    1.771202894
    5.045045045    1.107317889    1.107812203    1.601955009
    5.065065065    0.409480145    0.409460958    1.600564310
    5.085085085    1.255738049    1.255624537    1.658120222
    5.105105105    2.218030373    2.217921575    1.707932129
    5.125125125    3.096520834    3.096410251    1.747209866
    5.145145145    3.891284248    3.891203192    1.779424816
    5.165165165    3.856299896    3.856609000    1.806194787
    5.185185185    1.810161746    1.810549651    1.827638012
    5.205205205    1.548465833    1.548426830    1.850193430
    5.225225225    2.202454250    2.202376464    1.873587250
    5.245245245    2.856565680    2.856503300    1.897297041
    5.265265265    3.407282362    3.407273780    1.921243919
    5.285285285    3.550781554    3.550829937    1.942409831
    5.305305305    3.336316136    3.336092476    1.966282102
    5.325325325    3.586325362    3.586206260    1.997749898
    5.345345345    4.127850840    4.127739781    2.034712915
    5.365365365    4.723772189    4.723632741    2.078884079
    5.385385385    5.388369381    5.388185523    2.133844875
    5.405405405    6.183226623    6.182976977    2.205227031
    5.425425425    7.192560341    7.192212170    2.300637086
    5.445445445    8.459458548    8.458980104    2.416155422
    5.465465465    9.375917773    9.375461164    2.425284565
    5.485485485    8.241819313    8.242659884    2.157498274
    5.505505506    3.775068967    3.777556027    1.772831927
    5.525525526   -1.776643778   -1.775294482    1.413078402
    5.545545546   -1.781142102   -1.781656187    1.452877914
    5.565565566    0.026821658    0.026177327    1.606530268
    5.585585586    1.725619856    1.725112208    1.750315569
    5.605605606    2.591229946    2.591605664    1.840346033
    5.625625626    1.492241170    1.492773184    1.776400350
    5.645645646    0.535245790    0.535205011    1.563414865
    5.665665666   -0.506806348   -0.506514773    1.407539431
    5.685685686   -0.522851741   -0.522832615    1.452643276
    5.705705706   -0.380133964   -0.380277359    1.527585103
    5.725725726    0.461429686    0.461126169    1.600842647
    5.745745746    1.435721067    1.435391407    1.666986143
    5.765765766    2.424088063    2.423707304    1.729930574
    5.785785786    3.509520476    3.509055652    1.795596706
    5.805805806    4.650750250    4.650385125    1.862054229
    5.825825826    4.652822237    4.653782233    1.866797843
    5.845845846    1.156314366    1.158658833    1.691737993
    5.865865866   -1.052260018   -1.052287564    1.578913585
    5.885885886    0.116953392    0.116286125    1.638559516
    5.905905906    1.721288231    1.720634805    1.719045771
    5.925925926    2.650097972    2.650222117    1.778623403
    5.945945946   -0.412597586   -0.410035725    1.681940199
    5.965965966   -3.987561697   -3.987086398    1.524524102
    5.985985986   -3.505665729   -3.506054751    1.549698932
    6.006006006   -2.434087708   -2.434430718    1.601606437
    6.026026026   -1.556990936   -1.557240634    1.644945861
    6.046046046   -0.850533769   -0.850722485    1.680511713
    6.066066066   -0.240377299   -0.240534004    1.711304827
    6.086086086    0.325214480    0.325056862    1.739598236
    6.106106106    0.851404356    0.851230864    1.767041671
    6.126126126    1.263435198    1.263408513    1.793955039
    6.146146146    0.773982322    0.774305603    1.815974785
    6.166166166    0.419139542    0.419096751    1.842417175
    6.186186186    0.998227269    0.998057905    1.881397698
    6.206206206    1.749501290    1.749316745    1.929050011
    6.226226226    2.318356378    2.318467911    1.964035427
    6.246246246    1.303617153    1.304598538    1.864792210
    6.266266266    0.376044744    0.375929193    1.779163703
    6.286286286    0.834876612    0.834835543    1.813563100
    6.306306306   -0.134095266   -0.133243264    1.724063652
    6.326326326   -1.190518265   -1.190515018    1.626778213
    6.346346346   -0.896530683   -0.896599125    1.664423259
    6.366366366   -0.989722115   -0.989778413    1.715191360
    6.386386386   -0.587948231   -0.588132592    1.759751855
    6.406406406    0.000219668    0.000033424    1.800900354
    6.426426426    0.589103566    0.588908945    1.842905946
    6.446446446    1.214418572    1.214198533    1.889750363
    6.466466466    1.838044970    1.837906251    1.939076489
    6.486486486    1.612642599    1.613384521    1.934066427
